"sep=,"
Shimmer_7619_Timestamp_Unix_CAL,Shimmer_7619_GSR_Range_CAL,Shimmer_7619_GSR_Skin_Conductance_CAL,Shimmer_7619_GSR_Skin_Resistance_CAL,Shimmer_7619_PPG_A13_CAL,
ms,no_units,uS,kOhms,mV,
1.583379976836792E12,0.0,0.018223898820913683,54873.0000000002,0.0,
1.5833799768446045E12,0.0,0.018223898820913683,54873.0000000002,0.0,
1.583379976852417E12,0.0,0.018223898820913683,54873.0000000002,0.0,
1.5833799768602295E12,0.0,0.018223898820913683,54873.0000000002,0.0,
1.583379976868042E12,0.0,0.018223898820913683,54873.0000000002,0.0,
1.5833799768758545E12,0.0,0.018223898820913683,54873.0000000002,0.0,
1.583379976883667E12,0.0,0.018223898820913683,54873.0000000002,0.7326007326007326,
1.5833799768914795E12,0.0,0.018223898820913683,54873.0000000002,0.0,
1.583379976899292E12,1.0,0.05871016323977976,17032.826086956582,0.0,
1.5833799769071045E12,1.0,0.05871016323977976,17032.826086956582,0.0,
1.583379976914917E12,1.0,0.05871016323977976,17032.826086956582,0.0,
1.5833799769227295E12,1.0,0.05871016323977976,17032.826086956582,0.7326007326007326,
1.583379976930542E12,1.0,0.05871016323977976,17032.826086956582,0.0,
1.5833799769383545E12,1.0,0.05871016323977976,17032.826086956582,0.0,
1.583379976946167E12,1.0,0.05871016323977976,17032.826086956582,0.0,
1.5833799769539795E12,1.0,0.05871016323977976,17032.826086956582,0.0,
1.583379976961792E12,1.0,0.05871016323977976,17032.826086956582,0.0,
1.5833799769696045E12,1.0,0.05871016323977976,17032.826086956582,0.0,
1.583379976977417E12,1.0,0.05871016323977976,17032.826086956582,0.7326007326007326,
1.5833799769852295E12,2.0,0.07106227106227103,14072.164948453614,0.0,
1.583379976993042E12,2.0,0.07106227106227103,14072.164948453614,0.0,
1.5833799770008545E12,2.0,0.07106227106227103,14072.164948453614,0.0,
1.583379977008667E12,2.0,0.07106227106227103,14072.164948453614,0.0,
1.5833799770164795E12,2.0,0.07106227106227103,14072.164948453614,0.0,
1.583379977024292E12,2.0,0.07106227106227103,14072.164948453614,0.0,
1.5833799770321045E12,2.0,0.07106227106227103,14072.164948453614,0.0,
1.583379977039917E12,2.0,0.07106227106227103,14072.164948453614,0.0,
1.5833799770477295E12,2.0,0.07106227106227103,14072.164948453614,0.0,
1.583379977055542E12,2.0,0.07106227106227103,14072.164948453614,0.0,
1.5833799770633545E12,2.0,0.07106227106227103,14072.164948453614,0.0,
1.583379977071167E12,3.0,0.07525807525807526,13287.610619469026,0.0,
1.5833799770789795E12,3.0,0.0725940725940726,13775.229357798164,0.0,
1.583379977086792E12,3.0,0.06726606726606729,14866.336633663359,0.0,
1.5833799770946045E12,3.0,0.06593406593406591,15166.666666666673,0.0,
1.583379977102417E12,3.0,0.06460206460206457,15479.381443298977,0.0,
1.5833799771102295E12,3.0,0.06415806415806413,15586.505190311425,0.0,
1.583379977118042E12,3.0,0.06504606504606503,15373.720136518778,0.0,
1.5833799771258545E12,3.0,0.06415806415806413,15586.505190311425,0.0,
1.583379977133667E12,3.0,0.06504606504606503,15373.720136518778,0.0,
1.5833799771414795E12,3.0,0.06504606504606503,15373.720136518778,0.0,
1.583379977149292E12,3.0,0.06415806415806413,15586.505190311425,0.0,
1.5833799771571045E12,3.0,0.06593406593406591,15166.666666666673,0.0,
1.583379977164917E12,3.0,0.06460206460206457,15479.381443298977,0.0,
1.5833799771727295E12,3.0,0.06504606504606503,15373.720136518778,0.0,
1.583379977180542E12,3.0,0.06549006549006546,15269.491525423737,0.0,
1.5833799771883545E12,3.0,0.06415806415806413,15586.505190311425,0.0,
1.583379977196167E12,3.0,0.06549006549006546,15269.491525423737,0.0,
1.5833799772039795E12,3.0,0.06460206460206457,15479.381443298977,0.0,
1.583379977211792E12,3.0,0.0637140637140637,15695.121951219518,0.0,
1.5833799772196045E12,3.0,0.06415806415806413,15586.505190311425,0.0,
1.583379977227417E12,3.0,0.0628260628260628,15916.961130742055,0.0,
1.5833799772352295E12,3.0,0.0637140637140637,15695.121951219518,0.0,
1.583379977243042E12,3.0,0.059718059718059706,16745.353159851304,0.0,
1.5833799772508545E12,3.0,0.05572205572205573,17946.21513944223,0.0,
1.583379977258667E12,3.0,0.05261405261405263,19006.329113924046,0.0,
1.5833799772664795E12,3.0,0.04906204906204909,20382.352941176458,0.0,
1.583379977274292E12,3.0,0.04906204906204909,20382.352941176458,0.0,
1.5833799772821045E12,3.0,0.048174048174048203,20758.06451612902,0.0,
1.583379977289917E12,3.0,0.04728604728604726,21147.887323943676,0.0,
1.5833799772977295E12,3.0,0.04906204906204909,20382.352941176458,0.0,
1.583379977305542E12,3.0,0.048618048618048644,20568.49315068492,0.7326007326007326,
1.5833799773133545E12,3.0,0.0512820512820513,19499.999999999993,0.0,
1.583379977321167E12,3.0,0.05217005217005219,19168.085106382972,0.0,
1.5833799773289795E12,3.0,0.05261405261405263,19006.329113924046,0.0,
1.583379977336792E12,3.0,0.05527805527805528,18090.36144578313,0.0,
1.5833799773446045E12,3.0,0.0543900543900544,18385.714285714283,0.0,
1.583379977352417E12,3.0,0.05572205572205573,17946.21513944223,0.0,
1.5833799773602295E12,3.0,0.05661005661005661,17664.70588235294,0.0,
1.583379977368042E12,3.0,0.05572205572205573,17946.21513944223,0.0,
1.5833799773758545E12,3.0,0.05794205794205794,17258.620689655174,0.0,
1.583379977383667E12,3.0,0.057498057498057496,17391.891891891893,0.0,
1.5833799773914795E12,3.0,0.05794205794205794,17258.620689655174,0.0,
1.583379977399292E12,3.0,0.061494061494061475,16261.732851985564,0.7326007326007326,
1.5833799774071045E12,3.0,0.06593406593406591,15166.666666666673,0.0,
1.583379977414917E12,3.0,0.0703740703740704,14209.779179810721,0.0,
1.5833799774227295E12,3.0,0.07126207126207128,14032.710280373829,0.0,
1.583379977430542E12,3.0,0.07126207126207128,14032.710280373829,0.0,
1.5833799774383545E12,3.0,0.0725940725940726,13775.229357798164,0.0,
1.583379977446167E12,3.0,0.07126207126207128,14032.710280373829,0.0,
1.5833799774539795E12,3.0,0.07303807303807304,13691.489361702126,0.0,
1.583379977461792E12,3.0,0.07303807303807304,13691.489361702126,0.0,
1.5833799774696045E12,3.0,0.06771006771006774,14768.852459016387,0.0,
1.583379977477417E12,3.0,0.06504606504606503,15373.720136518778,0.0,
1.5833799774852295E12,3.0,0.06193806193806193,16145.161290322585,0.0,
1.583379977493042E12,3.0,0.06238206238206236,16030.24911032029,0.0,
1.5833799775008545E12,3.0,0.06238206238206236,16030.24911032029,0.0,
1.583379977508667E12,3.0,0.061494061494061475,16261.732851985564,0.0,
1.5833799775164795E12,3.0,0.06327006327006324,15805.263157894742,0.0,
1.583379977524292E12,3.0,0.06193806193806193,16145.161290322585,0.0,
1.5833799775321045E12,3.0,0.0628260628260628,15916.961130742055,0.0,
1.583379977539917E12,3.0,0.0637140637140637,15695.121951219518,0.0,
1.5833799775477295E12,3.0,0.06238206238206236,16030.24911032029,0.0,
1.583379977555542E12,3.0,0.06415806415806413,15586.505190311425,0.0,
1.5833799775633545E12,3.0,0.0637140637140637,15695.121951219518,0.0,
1.583379977571167E12,3.0,0.0637140637140637,15695.121951219518,0.0,
1.5833799775789795E12,3.0,0.06504606504606503,15373.720136518778,0.0,
1.583379977586792E12,3.0,0.06415806415806413,15586.505190311425,0.0,
1.5833799775946045E12,3.0,0.06504606504606503,15373.720136518778,0.0,
1.583379977602417E12,3.0,0.06504606504606503,15373.720136518778,0.0,
1.5833799776102295E12,3.0,0.06504606504606503,15373.720136518778,0.0,
1.583379977618042E12,3.0,0.06637806637806641,15065.21739130434,0.0,
1.5833799776258545E12,3.0,0.06549006549006546,15269.491525423737,0.0,
1.583379977633667E12,3.0,0.06637806637806641,15065.21739130434,0.0,
1.5833799776414795E12,3.0,0.06682206682206686,14965.11627906976,0.0,
1.583379977649292E12,3.0,0.06593406593406591,15166.666666666673,0.0,
1.5833799776571045E12,3.0,0.06726606726606729,14866.336633663359,0.0,
1.583379977664917E12,3.0,0.06637806637806641,15065.21739130434,0.0,
1.5833799776727295E12,3.0,0.06726606726606729,14866.336633663359,0.7326007326007326,
1.583379977680542E12,3.0,0.06771006771006774,14768.852459016387,0.0,
1.5833799776883545E12,3.0,0.06593406593406591,15166.666666666673,0.0,
1.583379977696167E12,3.0,0.06682206682206686,14965.11627906976,0.0,
1.5833799777039795E12,3.0,0.06593406593406591,15166.666666666673,0.7326007326007326,
1.583379977711792E12,3.0,0.06593406593406591,15166.666666666673,0.0,
1.5833799777196045E12,3.0,0.06726606726606729,14866.336633663359,0.0,
1.583379977727417E12,3.0,0.06549006549006546,15269.491525423737,0.0,
1.5833799777352295E12,3.0,0.06593406593406591,15166.666666666673,0.0,
1.583379977743042E12,3.0,0.059718059718059706,16745.353159851304,0.0,
1.5833799777508545E12,3.0,0.05261405261405263,19006.329113924046,0.0,
1.583379977758667E12,3.0,0.05261405261405263,19006.329113924046,0.0,
1.5833799777664795E12,3.0,0.05261405261405263,19006.329113924046,0.0,
1.583379977774292E12,3.0,0.05527805527805528,18090.36144578313,0.0,
1.5833799777821045E12,3.0,0.05661005661005661,17664.70588235294,0.0,
1.583379977789917E12,3.0,0.057054057054057056,17527.237354085602,0.0,
1.5833799777977295E12,3.0,0.059718059718059706,16745.353159851304,0.0,
1.583379977805542E12,3.0,0.05927405927405926,16870.786516853936,0.0,
1.5833799778133545E12,3.0,0.061050061050061034,16380.000000000004,0.0,
1.583379977821167E12,3.0,0.06193806193806193,16145.161290322585,0.0,
1.5833799778289795E12,3.0,0.061050061050061034,16380.000000000004,0.0,
1.583379977836792E12,3.0,0.06327006327006324,15805.263157894742,0.0,
1.5833799778446045E12,3.0,0.0628260628260628,15916.961130742055,0.0,
1.583379977852417E12,3.0,0.0637140637140637,15695.121951219518,0.0,
1.5833799778602295E12,3.0,0.06460206460206457,15479.381443298977,0.0,
1.583379977868042E12,3.0,0.06327006327006324,15805.263157894742,0.0,
1.5833799778758545E12,3.0,0.06460206460206457,15479.381443298977,0.0,
1.583379977883667E12,3.0,0.0637140637140637,15695.121951219518,0.0,
1.5833799778914795E12,3.0,0.06327006327006324,15805.263157894742,0.0,
1.583379977899292E12,3.0,0.06460206460206457,15479.381443298977,0.0,
1.5833799779071045E12,3.0,0.06327006327006324,15805.263157894742,0.0,
1.583379977914917E12,3.0,0.06460206460206457,15479.381443298977,0.0,
1.5833799779227295E12,3.0,0.0637140637140637,15695.121951219518,0.0,
1.583379977930542E12,3.0,0.06193806193806193,16145.161290322585,0.0,
1.5833799779383545E12,3.0,0.0628260628260628,15916.961130742055,0.0,
1.583379977946167E12,3.0,0.06193806193806193,16145.161290322585,0.0,
1.5833799779539795E12,3.0,0.06327006327006324,15805.263157894742,0.0,
1.583379977961792E12,3.0,0.06327006327006324,15805.263157894742,0.7326007326007326,
1.5833799779696045E12,3.0,0.061050061050061034,16380.000000000004,0.7326007326007326,
1.583379977977417E12,3.0,0.0628260628260628,15916.961130742055,0.0,
1.5833799779852295E12,3.0,0.06193806193806193,16145.161290322585,0.0,
1.583379977993042E12,3.0,0.06238206238206236,16030.24911032029,0.0,
1.5833799780008545E12,3.0,0.061494061494061475,16261.732851985564,0.0,
1.583379978008667E12,3.0,0.059718059718059706,16745.353159851304,0.0,
1.5833799780164795E12,3.0,0.06193806193806193,16145.161290322585,0.0,
1.583379978024292E12,3.0,0.06238206238206236,16030.24911032029,0.0,
1.5833799780321045E12,3.0,0.06238206238206236,16030.24911032029,0.0,
1.583379978039917E12,3.0,0.06415806415806413,15586.505190311425,0.0,
1.5833799780477295E12,3.0,0.0628260628260628,15916.961130742055,0.0,
1.583379978055542E12,3.0,0.06460206460206457,15479.381443298977,0.0,
1.5833799780633545E12,3.0,0.06415806415806413,15586.505190311425,0.0,
1.583379978071167E12,3.0,0.0637140637140637,15695.121951219518,0.0,
1.5833799780789795E12,3.0,0.06549006549006546,15269.491525423737,0.0,
1.583379978086792E12,3.0,0.06415806415806413,15586.505190311425,0.0,
1.5833799780946045E12,3.0,0.06549006549006546,15269.491525423737,0.0,
1.583379978102417E12,3.0,0.06771006771006774,14768.852459016387,0.0,
1.5833799781102295E12,3.0,0.06815406815406817,14672.638436482079,0.0,
1.583379978118042E12,3.0,0.07081807081807083,14120.68965517241,0.0,
1.5833799781258545E12,3.0,0.0703740703740704,14209.779179810721,0.0,
1.583379978133667E12,3.0,0.07215007215007216,13859.999999999998,0.0,
1.5833799781414795E12,3.0,0.07392607392607393,13527.027027027027,0.0,
1.583379978149292E12,3.0,0.07437007437007438,13446.268656716416,0.0,
1.5833799781571045E12,3.0,0.07703407703407703,12981.268011527378,0.0,
1.583379978164917E12,3.0,0.07703407703407703,12981.268011527378,0.0,
1.5833799781727295E12,3.0,0.07792207792207792,12833.333333333334,0.0,
1.583379978180542E12,3.0,0.07925407925407923,12617.647058823532,0.0,
1.5833799781883545E12,3.0,0.07792207792207792,12833.333333333334,0.0,
1.583379978196167E12,3.0,0.07925407925407923,12617.647058823532,0.0,
1.5833799782039795E12,3.0,0.0788100788100788,12688.7323943662,0.0,
1.583379978211792E12,3.0,0.0788100788100788,12688.7323943662,0.0,
1.5833799782196045E12,3.0,0.08014208014208013,12477.839335180059,0.7326007326007326,
1.583379978227417E12,3.0,0.0788100788100788,12688.7323943662,0.0,
1.5833799782352295E12,3.0,0.08014208014208013,12477.839335180059,0.0,
1.583379978243042E12,3.0,0.08058608058608056,12409.090909090912,0.0,
1.5833799782508545E12,3.0,0.08014208014208013,12477.839335180059,0.0,
1.583379978258667E12,3.0,0.08147408147408146,12273.841961852864,0.0,
1.5833799782664795E12,3.0,0.08058608058608056,12409.090909090912,0.0,
1.583379978274292E12,3.0,0.08236208236208233,12141.509433962268,0.7326007326007326,
1.5833799782821045E12,3.0,0.08325008325008322,12012.000000000004,0.0,
1.583379978289917E12,3.0,0.08236208236208233,12141.509433962268,0.0,
1.5833799782977295E12,3.0,0.08458208458208455,11822.834645669296,0.0,
1.583379978305542E12,3.0,0.08369408369408367,11948.27586206897,0.0,
1.5833799783133545E12,3.0,0.08458208458208455,11822.834645669296,0.0,
1.583379978321167E12,3.0,0.0854700854700855,11699.999999999996,0.0,
1.5833799783289795E12,3.0,0.0841380841380841,11885.224274406337,0.0,
1.583379978336792E12,3.0,0.0854700854700855,11699.999999999996,0.0,
1.5833799783446045E12,3.0,0.08502608502608501,11761.09660574413,0.0,
1.583379978352417E12,3.0,0.08502608502608501,11761.09660574413,0.0,
1.5833799783602295E12,3.0,0.08591408591408595,11639.534883720926,0.0,
1.583379978368042E12,3.0,0.08458208458208455,11822.834645669296,0.0,
1.5833799783758545E12,3.0,0.0854700854700855,11699.999999999996,0.0,
1.583379978383667E12,3.0,0.08458208458208455,11822.834645669296,0.0,
1.5833799783914795E12,3.0,0.0841380841380841,11885.224274406337,0.0,
1.583379978399292E12,3.0,0.0854700854700855,11699.999999999996,0.0,
1.5833799784071045E12,3.0,0.0841380841380841,11885.224274406337,0.0,
1.583379978414917E12,3.0,0.08502608502608501,11761.09660574413,0.0,
1.5833799784227295E12,3.0,0.0854700854700855,11699.999999999996,0.0,
1.583379978430542E12,3.0,0.08458208458208455,11822.834645669296,0.0,
1.5833799784383545E12,3.0,0.08591408591408595,11639.534883720926,0.0,
1.583379978446167E12,3.0,0.08458208458208455,11822.834645669296,0.0,
1.5833799784539795E12,3.0,0.08502608502608501,11761.09660574413,0.0,
1.583379978461792E12,3.0,0.08591408591408595,11639.534883720926,0.0,
1.5833799784696045E12,3.0,0.08458208458208455,11822.834645669296,0.0,
1.583379978477417E12,3.0,0.08591408591408595,11639.534883720926,0.0,
1.5833799784852295E12,3.0,0.0854700854700855,11699.999999999996,0.0,
1.583379978493042E12,3.0,0.0854700854700855,11699.999999999996,0.0,
1.5833799785008545E12,3.0,0.08680208680208684,11520.460358056262,0.0,
1.583379978508667E12,3.0,0.08502608502608501,11761.09660574413,0.0,
1.5833799785164795E12,3.0,0.0863580863580864,11579.691516709507,0.0,
1.583379978524292E12,3.0,0.0863580863580864,11579.691516709507,0.0,
1.5833799785321045E12,3.0,0.08591408591408595,11639.534883720926,0.0,
1.583379978539917E12,3.0,0.08680208680208684,11520.460358056262,0.0,
1.5833799785477295E12,3.0,0.08591408591408595,11639.534883720926,0.0,
1.583379978555542E12,3.0,0.08680208680208684,11520.460358056262,0.0,
1.5833799785633545E12,3.0,0.08680208680208684,11520.460358056262,0.0,
1.583379978571167E12,3.0,0.08591408591408595,11639.534883720926,0.0,
1.5833799785789795E12,3.0,0.08724608724608728,11461.832061068699,0.0,
1.583379978586792E12,3.0,0.08591408591408595,11639.534883720926,0.7326007326007326,
1.5833799785946045E12,3.0,0.08680208680208684,11520.460358056262,0.0,
1.583379978602417E12,3.0,0.08724608724608728,11461.832061068699,0.0,
1.5833799786102295E12,3.0,0.0863580863580864,11579.691516709507,0.0,
1.583379978618042E12,3.0,0.08769008769008772,11403.797468354427,0.0,
1.5833799786258545E12,3.0,0.08680208680208684,11520.460358056262,0.0,
1.583379978633667E12,3.0,0.08680208680208684,11520.460358056262,0.0,
1.5833799786414795E12,3.0,0.08769008769008772,11403.797468354427,0.0,
1.583379978649292E12,3.0,0.0863580863580864,11579.691516709507,0.0,
1.5833799786571045E12,3.0,0.08769008769008772,11403.797468354427,0.0,
1.583379978664917E12,3.0,0.08724608724608728,11461.832061068699,0.0,
1.5833799786727295E12,3.0,0.08680208680208684,11520.460358056262,0.0,
1.583379978680542E12,3.0,0.08813408813408816,11346.347607052894,0.0,
1.5833799786883545E12,3.0,0.08680208680208684,11520.460358056262,0.7326007326007326,
1.583379978696167E12,3.0,0.08769008769008772,11403.797468354427,0.0,
1.5833799787039795E12,3.0,0.08769008769008772,11403.797468354427,0.0,
1.583379978711792E12,3.0,0.08680208680208684,11520.460358056262,0.0,
1.5833799787196045E12,3.0,0.0885780885780886,11289.473684210523,0.0,
1.583379978727417E12,3.0,0.08724608724608728,11461.832061068699,0.0,
1.5833799787352295E12,3.0,0.08769008769008772,11403.797468354427,0.0,
1.583379978743042E12,3.0,0.08813408813408816,11346.347607052894,0.0,
1.5833799787508545E12,3.0,0.08724608724608728,11461.832061068699,0.0,
1.583379978758667E12,3.0,0.0885780885780886,11289.473684210523,0.0,
1.5833799787664795E12,3.0,0.08769008769008772,11403.797468354427,0.0,
1.583379978774292E12,3.0,0.08769008769008772,11403.797468354427,0.0,
1.5833799787821045E12,3.0,0.0885780885780886,11289.473684210523,0.0,
1.583379978789917E12,3.0,0.08724608724608728,11461.832061068699,0.0,
1.5833799787977295E12,3.0,0.0885780885780886,11289.473684210523,0.0,
1.583379978805542E12,3.0,0.08769008769008772,11403.797468354427,0.0,
1.5833799788133545E12,3.0,0.08769008769008772,11403.797468354427,0.0,
1.583379978821167E12,3.0,0.08902208902208905,11233.167082294261,0.0,
1.5833799788289795E12,3.0,0.08769008769008772,11403.797468354427,0.0,
1.583379978836792E12,3.0,0.0885780885780886,11289.473684210523,0.0,
1.5833799788446045E12,3.0,0.0885780885780886,11289.473684210523,0.0,
1.583379978852417E12,3.0,0.08769008769008772,11403.797468354427,0.0,
1.5833799788602295E12,3.0,0.08902208902208905,11233.167082294261,0.0,
1.583379978868042E12,3.0,0.08769008769008772,11403.797468354427,0.0,
1.5833799788758545E12,3.0,0.0885780885780886,11289.473684210523,0.0,
1.583379978883667E12,3.0,0.08902208902208905,11233.167082294261,0.0,
1.5833799788914795E12,3.0,0.08769008769008772,11403.797468354427,0.0,
1.583379978899292E12,3.0,0.08946608946608949,11177.419354838707,0.0,
1.5833799789071045E12,3.0,0.08813408813408816,11346.347607052894,0.0,
1.583379978914917E12,3.0,0.0885780885780886,11289.473684210523,0.0,
1.5833799789227295E12,3.0,0.08902208902208905,11233.167082294261,0.0,
1.583379978930542E12,3.0,0.08769008769008772,11403.797468354427,0.0,
1.5833799789383545E12,3.0,0.08902208902208905,11233.167082294261,0.0,
1.583379978946167E12,3.0,0.08813408813408816,11346.347607052894,0.0,
1.5833799789539795E12,3.0,0.08813408813408816,11346.347607052894,0.0,
1.583379978961792E12,3.0,0.08902208902208905,11233.167082294261,0.0,
1.5833799789696045E12,3.0,0.08769008769008772,11403.797468354427,0.0,
1.583379978977417E12,3.0,0.08902208902208905,11233.167082294261,0.0,
1.5833799789852295E12,3.0,0.0885780885780886,11289.473684210523,0.0,
1.583379978993042E12,3.0,0.08813408813408816,11346.347607052894,0.0,
1.5833799790008545E12,3.0,0.08902208902208905,11233.167082294261,0.0,
1.583379979008667E12,3.0,0.08813408813408816,11346.347607052894,0.0,
1.5833799790164795E12,3.0,0.08902208902208905,11233.167082294261,0.0,
1.583379979024292E12,3.0,0.08902208902208905,11233.167082294261,0.0,
1.5833799790321045E12,3.0,0.0885780885780886,11289.473684210523,0.7326007326007326,
1.583379979039917E12,3.0,0.08946608946608949,11177.419354838707,0.0,
1.5833799790477295E12,3.0,0.0885780885780886,11289.473684210523,0.0,
1.583379979055542E12,3.0,0.08902208902208905,11233.167082294261,0.0,
1.5833799790633545E12,3.0,0.08902208902208905,11233.167082294261,0.0,
1.583379979071167E12,3.0,0.08813408813408816,11346.347607052894,0.0,
1.5833799790789795E12,3.0,0.08946608946608949,11177.419354838707,0.0,
1.583379979086792E12,3.0,0.0885780885780886,11289.473684210523,0.0,
1.5833799790946045E12,3.0,0.0885780885780886,11289.473684210523,0.7326007326007326,
1.583379979102417E12,3.0,0.08946608946608949,11177.419354838707,0.0,
1.5833799791102295E12,3.0,0.08813408813408816,11346.347607052894,0.0,
1.583379979118042E12,3.0,0.08946608946608949,11177.419354838707,0.0,
1.5833799791258545E12,3.0,0.08902208902208905,11233.167082294261,0.0,
1.583379979133667E12,3.0,0.0885780885780886,11289.473684210523,0.0,
1.5833799791414795E12,3.0,0.08946608946608949,11177.419354838707,0.0,
1.583379979149292E12,3.0,0.08813408813408816,11346.347607052894,0.0,
1.5833799791571045E12,3.0,0.08946608946608949,11177.419354838707,0.0,
1.583379979164917E12,3.0,0.08946608946608949,11177.419354838707,0.0,
1.5833799791727295E12,3.0,0.08902208902208905,11233.167082294261,0.0,
1.583379979180542E12,3.0,0.09035409035409037,11067.567567567567,0.0,
1.5833799791883545E12,3.0,0.08946608946608949,11177.419354838707,0.0,
1.583379979196167E12,3.0,0.09035409035409037,11067.567567567567,0.0,
1.5833799792039795E12,3.0,0.09035409035409037,11067.567567567567,0.0,
1.583379979211792E12,3.0,0.08946608946608949,11177.419354838707,0.0,
1.5833799792196045E12,3.0,0.09124209124209125,10959.854014598539,0.0,
1.583379979227417E12,3.0,0.08991008991008992,11122.22222222222,0.0,
1.5833799792352295E12,3.0,0.09035409035409037,11067.567567567567,0.0,
1.583379979243042E12,3.0,0.09124209124209125,10959.854014598539,0.0,
1.5833799792508545E12,3.0,0.09035409035409037,11067.567567567567,0.0,
1.583379979258667E12,3.0,0.09124209124209125,10959.854014598539,0.0,
1.5833799792664795E12,3.0,0.09035409035409037,11067.567567567567,0.0,
1.583379979274292E12,3.0,0.09035409035409037,11067.567567567567,0.0,
1.5833799792821045E12,3.0,0.09124209124209125,10959.854014598539,0.0,
1.583379979289917E12,3.0,0.08991008991008992,11122.22222222222,0.0,
1.5833799792977295E12,3.0,0.09079809079809081,11013.447432762834,0.0,
1.583379979305542E12,3.0,0.09079809079809081,11013.447432762834,0.0,
1.5833799793133545E12,3.0,0.09035409035409037,11067.567567567567,0.0,
1.583379979321167E12,3.0,0.09124209124209125,10959.854014598539,0.0,
1.5833799793289795E12,3.0,0.09035409035409037,11067.567567567567,0.0,
1.583379979336792E12,3.0,0.09124209124209125,10959.854014598539,0.0,
1.5833799793446045E12,3.0,0.09079809079809081,11013.447432762834,0.0,
1.583379979352417E12,3.0,0.09035409035409037,11067.567567567567,0.0,
1.5833799793602295E12,3.0,0.09124209124209125,10959.854014598539,0.0,
1.583379979368042E12,3.0,0.08991008991008992,11122.22222222222,0.0,
1.5833799793758545E12,3.0,0.09035409035409037,11067.567567567567,0.0,
1.583379979383667E12,3.0,0.09035409035409037,11067.567567567567,0.0,
1.5833799793914795E12,3.0,0.08946608946608949,11177.419354838707,0.0,
1.583379979399292E12,3.0,0.09079809079809081,11013.447432762834,0.0,
1.5833799794071045E12,3.0,0.08991008991008992,11122.22222222222,0.0,
1.583379979414917E12,3.0,0.09035409035409037,11067.567567567567,0.0,
1.5833799794227295E12,3.0,0.09079809079809081,11013.447432762834,0.0,
1.583379979430542E12,3.0,0.08991008991008992,11122.22222222222,0.0,
1.5833799794383545E12,3.0,0.09079809079809081,11013.447432762834,0.0,
1.583379979446167E12,3.0,0.09035409035409037,11067.567567567567,0.0,
1.5833799794539795E12,3.0,0.09035409035409037,11067.567567567567,0.0,
1.583379979461792E12,3.0,0.09124209124209125,10959.854014598539,0.0,
1.5833799794696045E12,3.0,0.08991008991008992,11122.22222222222,0.0,
1.583379979477417E12,3.0,0.09124209124209125,10959.854014598539,0.0,
1.5833799794852295E12,3.0,0.09079809079809081,11013.447432762834,0.0,
1.583379979493042E12,3.0,0.09035409035409037,11067.567567567567,0.0,
1.5833799795008545E12,3.0,0.09124209124209125,10959.854014598539,0.0,
1.583379979508667E12,3.0,0.08946608946608949,11177.419354838707,0.0,
1.5833799795164795E12,3.0,0.08946608946608949,11177.419354838707,0.0,
1.583379979524292E12,3.0,0.08902208902208905,11233.167082294261,0.0,
1.5833799795321045E12,3.0,0.08813408813408816,11346.347607052894,0.0,
1.583379979539917E12,3.0,0.08902208902208905,11233.167082294261,0.0,
1.5833799795477295E12,3.0,0.08769008769008772,11403.797468354427,0.0,
1.583379979555542E12,3.0,0.08813408813408816,11346.347607052894,0.0,
1.5833799795633545E12,3.0,0.0885780885780886,11289.473684210523,0.0,
1.583379979571167E12,3.0,0.08769008769008772,11403.797468354427,0.0,
1.5833799795789795E12,3.0,0.08902208902208905,11233.167082294261,0.0,
1.583379979586792E12,3.0,0.0885780885780886,11289.473684210523,0.0,
1.5833799795946045E12,3.0,0.0885780885780886,11289.473684210523,0.0,
1.583379979602417E12,3.0,0.08902208902208905,11233.167082294261,0.0,
1.5833799796102295E12,3.0,0.08813408813408816,11346.347607052894,0.0,
1.583379979618042E12,3.0,0.08902208902208905,11233.167082294261,0.0,
1.5833799796258545E12,3.0,0.08902208902208905,11233.167082294261,0.0,
1.583379979633667E12,3.0,0.0885780885780886,11289.473684210523,0.0,
1.5833799796414795E12,3.0,0.08991008991008992,11122.22222222222,0.0,
1.583379979649292E12,3.0,0.0885780885780886,11289.473684210523,0.0,
1.5833799796571045E12,3.0,0.08946608946608949,11177.419354838707,0.0,
1.583379979664917E12,3.0,0.08946608946608949,11177.419354838707,0.0,
1.5833799796727295E12,3.0,0.08902208902208905,11233.167082294261,0.0,
1.583379979680542E12,3.0,0.09035409035409037,11067.567567567567,0.0,
1.5833799796883545E12,3.0,0.08902208902208905,11233.167082294261,0.0,
1.583379979696167E12,3.0,0.08946608946608949,11177.419354838707,0.0,
1.5833799797039795E12,3.0,0.08991008991008992,11122.22222222222,0.0,
1.583379979711792E12,3.0,0.08902208902208905,11233.167082294261,0.0,
1.5833799797196045E12,3.0,0.09035409035409037,11067.567567567567,0.0,
1.583379979727417E12,3.0,0.08946608946608949,11177.419354838707,0.0,
1.5833799797352295E12,3.0,0.08991008991008992,11122.22222222222,0.0,
1.583379979743042E12,3.0,0.09035409035409037,11067.567567567567,0.0,
1.5833799797508545E12,3.0,0.08902208902208905,11233.167082294261,0.0,
1.583379979758667E12,3.0,0.09035409035409037,11067.567567567567,0.0,
1.5833799797664795E12,3.0,0.08991008991008992,11122.22222222222,0.0,
1.583379979774292E12,3.0,0.08946608946608949,11177.419354838707,1.465201465201465,
1.5833799797821045E12,3.0,0.09035409035409037,11067.567567567567,113.55311355311355,
1.583379979789917E12,3.0,0.08946608946608949,11177.419354838707,283.5164835164835,
1.5833799797977295E12,3.0,0.09035409035409037,11067.567567567567,476.9230769230769,
1.583379979805542E12,3.0,0.08991008991008992,11122.22222222222,673.2600732600732,
1.5833799798133545E12,3.0,0.08902208902208905,11233.167082294261,860.8058608058608,
1.583379979821167E12,3.0,0.09035409035409037,11067.567567567567,1032.2344322344322,
1.5833799798289795E12,3.0,0.08946608946608949,11177.419354838707,1183.150183150183,
1.583379979836792E12,3.0,0.08991008991008992,11122.22222222222,1310.6227106227104,
1.5833799798446045E12,3.0,0.09035409035409037,11067.567567567567,1413.9194139194137,
1.583379979852417E12,3.0,0.08946608946608949,11177.419354838707,1493.040293040293,
1.5833799798602295E12,3.0,0.09079809079809081,11013.447432762834,1550.9157509157508,
1.583379979868042E12,3.0,0.08946608946608949,11177.419354838707,1588.278388278388,
1.5833799798758545E12,3.0,0.09035409035409037,11067.567567567567,1607.3260073260071,
1.583379979883667E12,3.0,0.09079809079809081,11013.447432762834,1611.7216117216117,
1.5833799798914795E12,3.0,0.08946608946608949,11177.419354838707,1603.6630036630036,
1.583379979899292E12,3.0,0.09124209124209125,10959.854014598539,1585.3479853479853,
1.5833799799071045E12,3.0,0.09035409035409037,11067.567567567567,1560.4395604395604,
1.583379979914917E12,3.0,0.09035409035409037,11067.567567567567,1530.4029304029302,
1.5833799799227295E12,3.0,0.09124209124209125,10959.854014598539,1498.168498168498,
1.583379979930542E12,3.0,0.08991008991008992,11122.22222222222,1465.201465201465,
1.5833799799383545E12,3.0,0.09079809079809081,11013.447432762834,1432.2344322344322,
1.583379979946167E12,3.0,0.09079809079809081,11013.447432762834,1401.4652014652013,
1.5833799799539795E12,3.0,0.08991008991008992,11122.22222222222,1373.6263736263736,
1.583379979961792E12,3.0,0.0916860916860917,10906.779661016948,1348.7179487179487,
1.5833799799696045E12,3.0,0.08991008991008992,11122.22222222222,1328.937728937729,
1.583379979977417E12,3.0,0.09124209124209125,10959.854014598539,1314.2857142857142,
1.5833799799852295E12,3.0,0.09124209124209125,10959.854014598539,1304.7619047619046,
1.583379979993042E12,3.0,0.09035409035409037,11067.567567567567,1300.3663003663003,
1.5833799800008545E12,3.0,0.09213009213009214,10854.216867469879,1301.8315018315018,
1.583379980008667E12,3.0,0.09124209124209125,10959.854014598539,1307.6923076923076,
1.5833799800164795E12,3.0,0.09124209124209125,10959.854014598539,1317.9487179487178,
1.583379980024292E12,3.0,0.09213009213009214,10854.216867469879,1331.8681318681317,
1.5833799800321045E12,3.0,0.09079809079809081,11013.447432762834,1347.2527472527472,
1.583379980039917E12,3.0,0.09213009213009214,10854.216867469879,1364.8351648351647,
1.5833799800477295E12,3.0,0.09124209124209125,10959.854014598539,1382.4175824175823,
1.583379980055542E12,3.0,0.0916860916860917,10906.779661016948,1398.5347985347985,
1.5833799800633545E12,3.0,0.09213009213009214,10854.216867469879,1411.7216117216117,
1.583379980071167E12,3.0,0.09124209124209125,10959.854014598539,1422.7106227106226,
1.5833799800789795E12,3.0,0.09213009213009214,10854.216867469879,1430.7692307692307,
1.583379980086792E12,3.0,0.0916860916860917,10906.779661016948,1436.6300366300366,
1.5833799800946045E12,3.0,0.09124209124209125,10959.854014598539,1438.8278388278388,
1.583379980102417E12,3.0,0.09257409257409258,10802.158273381294,1438.095238095238,
1.5833799801102295E12,3.0,0.09124209124209125,10959.854014598539,1434.4322344322343,
1.583379980118042E12,3.0,0.09213009213009214,10854.216867469879,1428.5714285714284,
1.5833799801258545E12,3.0,0.09213009213009214,10854.216867469879,1421.9780219780218,
1.583379980133667E12,3.0,0.09124209124209125,10959.854014598539,1413.1868131868132,
1.5833799801414795E12,3.0,0.09301809301809302,10750.596658711216,1404.3956043956043,
1.583379980149292E12,3.0,0.09124209124209125,10959.854014598539,1394.8717948717947,
1.5833799801571045E12,3.0,0.0916860916860917,10906.779661016948,1386.080586080586,
1.583379980164917E12,3.0,0.0916860916860917,10906.779661016948,1378.021978021978,
1.5833799801727295E12,3.0,0.09035409035409037,11067.567567567567,1371.4285714285713,
1.583379980180542E12,3.0,0.09124209124209125,10959.854014598539,1365.5677655677655,
1.5833799801883545E12,3.0,0.08991008991008992,11122.22222222222,1359.7069597069597,
1.583379980196167E12,3.0,0.08991008991008992,11122.22222222222,1355.3113553113553,
1.5833799802039795E12,3.0,0.09079809079809081,11013.447432762834,1353.8461538461538,
1.583379980211792E12,3.0,0.08946608946608949,11177.419354838707,1350.9157509157508,
1.5833799802196045E12,3.0,0.09079809079809081,11013.447432762834,1350.18315018315,
1.583379980227417E12,3.0,0.09035409035409037,11067.567567567567,1350.9157509157508,
1.5833799802352295E12,3.0,0.09035409035409037,11067.567567567567,1350.9157509157508,
1.583379980243042E12,3.0,0.09124209124209125,10959.854014598539,1350.9157509157508,
1.5833799802508545E12,3.0,0.08991008991008992,11122.22222222222,1352.3809523809523,
1.583379980258667E12,3.0,0.09124209124209125,10959.854014598539,1354.5787545787546,
1.5833799802664795E12,3.0,0.09079809079809081,11013.447432762834,1354.5787545787546,
1.583379980274292E12,3.0,0.09035409035409037,11067.567567567567,1357.5091575091574,
1.5833799802821045E12,3.0,0.0916860916860917,10906.779661016948,1360.4395604395604,
1.583379980289917E12,3.0,0.09079809079809081,11013.447432762834,1363.3699633699632,
1.5833799802977295E12,3.0,0.09124209124209125,10959.854014598539,1365.5677655677655,
1.583379980305542E12,3.0,0.09124209124209125,10959.854014598539,1367.7655677655678,
1.5833799803133545E12,3.0,0.09035409035409037,11067.567567567567,1370.6959706959706,
1.583379980321167E12,3.0,0.09213009213009214,10854.216867469879,1372.8937728937728,
1.5833799803289795E12,3.0,0.09079809079809081,11013.447432762834,1375.091575091575,
1.583379980336792E12,3.0,0.0916860916860917,10906.779661016948,1378.021978021978,
1.5833799803446045E12,3.0,0.09213009213009214,10854.216867469879,1380.2197802197802,
1.583379980352417E12,3.0,0.09124209124209125,10959.854014598539,1381.6849816849815,
1.5833799803602295E12,3.0,0.09257409257409258,10802.158273381294,1383.150183150183,
1.583379980368042E12,3.0,0.0916860916860917,10906.779661016948,1383.150183150183,
1.5833799803758545E12,3.0,0.0916860916860917,10906.779661016948,1383.8827838827838,
1.583379980383667E12,3.0,0.09257409257409258,10802.158273381294,1383.8827838827838,
1.5833799803914795E12,3.0,0.0916860916860917,10906.779661016948,1382.4175824175823,
1.583379980399292E12,3.0,0.09301809301809302,10750.596658711216,1381.6849816849815,
1.5833799804071045E12,3.0,0.09257409257409258,10802.158273381294,1379.4871794871794,
1.583379980414917E12,3.0,0.09213009213009214,10854.216867469879,1378.021978021978,
1.5833799804227295E12,3.0,0.09346209346209346,10699.524940617577,1375.8241758241757,
1.583379980430542E12,3.0,0.09257409257409258,10802.158273381294,1372.8937728937728,
1.5833799804383545E12,3.0,0.09346209346209346,10699.524940617577,1370.6959706959706,
1.583379980446167E12,3.0,0.09346209346209346,10699.524940617577,1368.4981684981683,
1.5833799804539795E12,3.0,0.09257409257409258,10802.158273381294,1365.5677655677655,
1.583379980461792E12,3.0,0.0939060939060939,10648.936170212766,1364.102564102564,
1.5833799804696045E12,3.0,0.09213009213009214,10854.216867469879,1361.904761904762,
1.583379980477417E12,3.0,0.09257409257409258,10802.158273381294,1359.7069597069597,
1.5833799804852295E12,3.0,0.09257409257409258,10802.158273381294,1358.974358974359,
1.583379980493042E12,3.0,0.08946608946608949,11177.419354838707,1358.2417582417581,
1.5833799805008545E12,3.0,0.08325008325008322,12012.000000000004,1358.2417582417581,
1.583379980508667E12,3.0,0.07703407703407703,12981.268011527378,1358.2417582417581,
1.5833799805164795E12,3.0,0.0757020757020757,13209.677419354839,1358.2417582417581,
1.583379980524292E12,3.0,0.0757020757020757,13209.677419354839,1358.974358974359,
1.5833799805321045E12,3.0,0.07392607392607393,13527.027027027027,1359.7069597069597,
1.583379980539917E12,3.0,0.07525807525807526,13287.610619469026,1361.1721611721612,
1.5833799805477295E12,3.0,0.07481407481407482,13366.46884272997,1362.6373626373625,
1.583379980555542E12,3.0,0.07481407481407482,13366.46884272997,1363.3699633699632,
1.5833799805633545E12,3.0,0.0757020757020757,13209.677419354839,1364.8351648351647,
1.583379980571167E12,3.0,0.07481407481407482,13366.46884272997,1365.5677655677655,
1.5833799805789795E12,3.0,0.0757020757020757,13209.677419354839,1366.3003663003662,
1.583379980586792E12,3.0,0.0757020757020757,13209.677419354839,1367.032967032967,
1.5833799805946045E12,3.0,0.07525807525807526,13287.610619469026,1367.7655677655678,
1.583379980602417E12,3.0,0.07659007659007659,13056.521739130436,1368.4981684981683,
1.5833799806102295E12,3.0,0.07525807525807526,13287.610619469026,1369.230769230769,
1.583379980618042E12,3.0,0.07614607614607616,13132.65306122449,1369.230769230769,
1.5833799806258545E12,3.0,0.07614607614607616,13132.65306122449,1369.9633699633698,
1.583379980633667E12,3.0,0.07525807525807526,13287.610619469026,1370.6959706959706,
1.5833799806414795E12,3.0,0.07747807747807747,12906.876790830947,1370.6959706959706,
1.583379980649292E12,3.0,0.07614607614607616,13132.65306122449,1371.4285714285713,
1.5833799806571045E12,3.0,0.07659007659007659,13056.521739130436,1372.161172161172,
1.583379980664917E12,3.0,0.07747807747807747,12906.876790830947,1371.4285714285713,
1.5833799806727295E12,3.0,0.07614607614607616,13132.65306122449,1370.6959706959706,
1.583379980680542E12,3.0,0.07747807747807747,12906.876790830947,1371.4285714285713,
1.5833799806883545E12,3.0,0.07703407703407703,12981.268011527378,1371.4285714285713,
1.583379980696167E12,3.0,0.07703407703407703,12981.268011527378,1370.6959706959706,
1.5833799807039795E12,3.0,0.07792207792207792,12833.333333333334,1369.9633699633698,
1.583379980711792E12,3.0,0.07659007659007659,13056.521739130436,1369.9633699633698,
1.5833799807196045E12,3.0,0.07836607836607835,12760.623229461758,1370.6959706959706,
1.583379980727417E12,3.0,0.07792207792207792,12833.333333333334,1372.161172161172,
1.5833799807352295E12,3.0,0.07747807747807747,12906.876790830947,1373.6263736263736,
1.583379980743042E12,3.0,0.0788100788100788,12688.7323943662,1378.021978021978,
1.5833799807508545E12,3.0,0.07792207792207792,12833.333333333334,1383.150183150183,
1.583379980758667E12,3.0,0.07925407925407923,12617.647058823532,1389.7435897435896,
1.5833799807664795E12,3.0,0.07925407925407923,12617.647058823532,1399.2673992673992,
1.583379980774292E12,3.0,0.0788100788100788,12688.7323943662,1409.5238095238094,
1.5833799807821045E12,3.0,0.08058608058608056,12409.090909090912,1421.245421245421,
1.583379980789917E12,3.0,0.07969807969807968,12547.353760445685,1432.9670329670328,
1.5833799807977295E12,3.0,0.08014208014208013,12477.839335180059,1443.2234432234432,
1.583379980805542E12,3.0,0.08058608058608056,12409.090909090912,1454.212454212454,
1.5833799808133545E12,3.0,0.07969807969807968,12547.353760445685,1462.2710622710622,
1.583379980821167E12,3.0,0.08103008103008101,12341.095890410961,1468.131868131868,
1.5833799808289795E12,3.0,0.07437007437007438,13446.268656716416,1471.062271062271,
1.583379980836792E12,3.0,0.06859806859806863,14577.669902912616,1471.7948717948716,
1.5833799808446045E12,3.0,0.06859806859806863,14577.669902912616,1470.3296703296703,
1.583379980852417E12,3.0,0.06993006993006995,14299.999999999996,1465.201465201465,
1.5833799808602295E12,3.0,0.07348207348207349,13608.761329305134,1457.8754578754579,
1.583379980868042E12,3.0,0.07348207348207349,13608.761329305134,1449.8168498168498,
1.5833799808758545E12,3.0,0.0725940725940726,13775.229357798164,1440.2930402930401,
1.583379980883667E12,3.0,0.07215007215007216,13859.999999999998,1430.7692307692307,
1.5833799808914795E12,3.0,0.057498057498057496,17391.891891891893,1420.5128205128203,
1.583379980899292E12,3.0,0.05039405039405041,19843.612334801754,1410.989010989011,
1.5833799809071045E12,3.0,0.04639804639804637,21552.63157894738,1401.4652014652013,
1.583379980914917E12,3.0,0.04417804417804416,22635.67839195981,1392.6739926739926,
1.5833799809227295E12,3.0,0.05217005217005219,19168.085106382972,1385.3479853479853,
1.583379980930542E12,3.0,0.05261405261405263,19006.329113924046,1378.7545787545787,
1.5833799809383545E12,3.0,0.05483405483405483,18236.842105263157,1373.6263736263736,
1.583379980946167E12,3.0,0.05616605616605617,17804.347826086956,1369.230769230769,
1.5833799809539795E12,3.0,0.05527805527805528,18090.36144578313,1367.7655677655678,
1.583379980961792E12,3.0,0.057498057498057496,17391.891891891893,1365.5677655677655,
1.5833799809696045E12,3.0,0.05527805527805528,18090.36144578313,1364.102564102564,
1.583379980977417E12,3.0,0.05350205350205352,18690.8713692946,1364.102564102564,
1.5833799809852295E12,3.0,0.05394605394605396,18537.037037037033,1364.8351648351647,
1.583379980993042E12,3.0,0.05305805305805308,18847.280334728028,1364.8351648351647,
1.5833799810008545E12,3.0,0.05483405483405483,18236.842105263157,1367.032967032967,
1.583379981008667E12,3.0,0.0543900543900544,18385.714285714283,1368.4981684981683,
1.5833799810164795E12,3.0,0.0543900543900544,18385.714285714283,1369.9633699633698,
1.583379981024292E12,3.0,0.05572205572205573,17946.21513944223,1371.4285714285713,
1.5833799810321045E12,3.0,0.05483405483405483,18236.842105263157,1373.6263736263736,
1.583379981039917E12,3.0,0.05616605616605617,17804.347826086956,1375.8241758241757,
1.5833799810477295E12,3.0,0.05616605616605617,17804.347826086956,1378.021978021978,
1.583379981055542E12,3.0,0.05483405483405483,18236.842105263157,1380.952380952381,
1.5833799810633545E12,3.0,0.05527805527805528,18090.36144578313,1383.150183150183,
1.583379981071167E12,3.0,0.0543900543900544,18385.714285714283,1385.3479853479853,
1.5833799810789795E12,3.0,0.05527805527805528,18090.36144578313,1388.278388278388,
1.583379981086792E12,3.0,0.05572205572205573,17946.21513944223,1390.4761904761904,
1.5833799810946045E12,3.0,0.05616605616605617,17804.347826086956,1393.4065934065934,
1.583379981102417E12,3.0,0.05838605838605838,17127.376425855517,1394.139194139194,
1.5833799811102295E12,3.0,0.057054057054057056,17527.237354085602,1394.8717948717947,
1.583379981118042E12,3.0,0.05527805527805528,18090.36144578313,1394.8717948717947,
1.5833799811258545E12,3.0,0.05350205350205352,18690.8713692946,1394.8717948717947,
1.583379981133667E12,3.0,0.05083805083805086,19670.305676855885,1393.4065934065934,
1.5833799811414795E12,3.0,0.05394605394605396,18537.037037037033,1391.9413919413919,
1.583379981149292E12,3.0,0.05527805527805528,18090.36144578313,1389.7435897435896,
1.5833799811571045E12,3.0,0.057054057054057056,17527.237354085602,1388.278388278388,
1.583379981164917E12,3.0,0.05927405927405926,16870.786516853936,1386.080586080586,
1.5833799811727295E12,3.0,0.058830058830058825,16998.113207547172,1383.8827838827838,
1.583379981180542E12,3.0,0.061050061050061034,16380.000000000004,1380.952380952381,
1.5833799811883545E12,3.0,0.060606060606060594,16500.000000000004,1378.021978021978,
1.583379981196167E12,3.0,0.060606060606060594,16500.000000000004,1376.5567765567764,
1.5833799812039795E12,3.0,0.06193806193806193,16145.161290322585,1375.091575091575,
1.583379981211792E12,3.0,0.061050061050061034,16380.000000000004,1373.6263736263736,
1.5833799812196045E12,3.0,0.0628260628260628,15916.961130742055,1372.8937728937728,
1.583379981227417E12,3.0,0.0628260628260628,15916.961130742055,1372.161172161172,
1.5833799812352295E12,3.0,0.06238206238206236,16030.24911032029,1371.4285714285713,
1.583379981243042E12,3.0,0.06415806415806413,15586.505190311425,1370.6959706959706,
1.5833799812508545E12,3.0,0.06327006327006324,15805.263157894742,1369.9633699633698,
1.583379981258667E12,3.0,0.06415806415806413,15586.505190311425,1369.230769230769,
1.5833799812664795E12,3.0,0.06460206460206457,15479.381443298977,1369.230769230769,
1.583379981274292E12,3.0,0.06327006327006324,15805.263157894742,1367.7655677655678,
1.5833799812821045E12,3.0,0.06504606504606503,15373.720136518778,1367.032967032967,
1.583379981289917E12,3.0,0.06415806415806413,15586.505190311425,1367.032967032967,
1.5833799812977295E12,3.0,0.06460206460206457,15479.381443298977,1366.3003663003662,
1.583379981305542E12,3.0,0.06593406593406591,15166.666666666673,1367.032967032967,
1.5833799813133545E12,3.0,0.06460206460206457,15479.381443298977,1367.032967032967,
1.583379981321167E12,3.0,0.06637806637806641,15065.21739130434,1367.032967032967,
1.5833799813289795E12,3.0,0.06593406593406591,15166.666666666673,1368.4981684981683,
1.583379981336792E12,3.0,0.06593406593406591,15166.666666666673,1369.230769230769,
1.5833799813446045E12,3.0,0.06771006771006774,14768.852459016387,1370.6959706959706,
1.583379981352417E12,3.0,0.06682206682206686,14965.11627906976,1371.4285714285713,
1.5833799813602295E12,3.0,0.06815406815406817,14672.638436482079,1371.4285714285713,
1.583379981368042E12,3.0,0.06859806859806863,14577.669902912616,1373.6263736263736,
1.5833799813758545E12,3.0,0.06815406815406817,14672.638436482079,1374.3589743589744,
1.583379981383667E12,3.0,0.06993006993006995,14299.999999999996,1374.3589743589744,
1.5833799813914795E12,3.0,0.06859806859806863,14577.669902912616,1375.8241758241757,
1.583379981399292E12,3.0,0.06993006993006995,14299.999999999996,1377.2893772893772,
1.5833799814071045E12,3.0,0.0703740703740704,14209.779179810721,1376.5567765567764,
1.583379981414917E12,3.0,0.0694860694860695,14391.373801916929,1377.2893772893772,
1.5833799814227295E12,3.0,0.07126207126207128,14032.710280373829,1376.5567765567764,
1.583379981430542E12,3.0,0.0703740703740704,14209.779179810721,1376.5567765567764,
1.5833799814383545E12,3.0,0.07126207126207128,14032.710280373829,1376.5567765567764,
1.583379981446167E12,3.0,0.07170607170607173,13945.82043343653,1377.2893772893772,
1.5833799814539795E12,3.0,0.07081807081807083,14120.68965517241,1377.2893772893772,
1.583379981461792E12,3.0,0.0725940725940726,13775.229357798164,1378.7545787545787,
1.5833799814696045E12,3.0,0.07126207126207128,14032.710280373829,1379.4871794871794,
1.583379981477417E12,3.0,0.07126207126207128,14032.710280373829,1379.4871794871794,
1.5833799814852295E12,3.0,0.07215007215007216,13859.999999999998,1379.4871794871794,
1.583379981493042E12,3.0,0.07126207126207128,14032.710280373829,1380.2197802197802,
1.5833799815008545E12,3.0,0.0725940725940726,13775.229357798164,1382.4175824175823,
1.583379981508667E12,3.0,0.0725940725940726,13775.229357798164,1386.080586080586,
1.5833799815164795E12,3.0,0.0725940725940726,13775.229357798164,1390.4761904761904,
1.583379981524292E12,3.0,0.07392607392607393,13527.027027027027,1398.5347985347985,
1.5833799815321045E12,3.0,0.0725940725940726,13775.229357798164,1407.3260073260071,
1.583379981539917E12,3.0,0.07392607392607393,13527.027027027027,1418.3150183150183,
1.5833799815477295E12,3.0,0.07437007437007438,13446.268656716416,1430.03663003663,
1.583379981555542E12,3.0,0.07348207348207349,13608.761329305134,1441.7582417582416,
1.5833799815633545E12,3.0,0.07525807525807526,13287.610619469026,1452.7472527472526,
1.583379981571167E12,3.0,0.07392607392607393,13527.027027027027,1463.003663003663,
1.5833799815789795E12,3.0,0.07481407481407482,13366.46884272997,1471.062271062271,
1.583379981586792E12,3.0,0.07525807525807526,13287.610619469026,1476.1904761904761,
1.5833799815946045E12,3.0,0.07392607392607393,13527.027027027027,1479.120879120879,
1.583379981602417E12,3.0,0.07481407481407482,13366.46884272997,1479.120879120879,
1.5833799816102295E12,3.0,0.0725940725940726,13775.229357798164,1476.923076923077,
1.583379981618042E12,3.0,0.0725940725940726,13775.229357798164,1470.3296703296703,
1.5833799816258545E12,3.0,0.07303807303807304,13691.489361702126,1463.7362637362637,
1.583379981633667E12,3.0,0.07170607170607173,13945.82043343653,1453.4798534798533,
1.5833799816414795E12,3.0,0.07348207348207349,13608.761329305134,1442.4908424908424,
1.583379981649292E12,3.0,0.07303807303807304,13691.489361702126,1431.5018315018315,
1.5833799816571045E12,3.0,0.07303807303807304,13691.489361702126,1419.7802197802198,
1.583379981664917E12,3.0,0.07392607392607393,13527.027027027027,1408.7912087912086,
1.5833799816727295E12,3.0,0.0725940725940726,13775.229357798164,1398.5347985347985,
1.583379981680542E12,3.0,0.07437007437007438,13446.268656716416,1390.4761904761904,
1.5833799816883545E12,3.0,0.07392607392607393,13527.027027027027,1382.4175824175823,
1.583379981696167E12,3.0,0.07348207348207349,13608.761329305134,1375.8241758241757,
1.5833799817039795E12,3.0,0.07525807525807526,13287.610619469026,1372.161172161172,
1.583379981711792E12,3.0,0.07348207348207349,13608.761329305134,1368.4981684981683,
1.5833799817196045E12,3.0,0.07481407481407482,13366.46884272997,1366.3003663003662,
1.583379981727417E12,3.0,0.07392607392607393,13527.027027027027,1365.5677655677655,
1.5833799817352295E12,3.0,0.07215007215007216,13859.999999999998,1365.5677655677655,
1.583379981743042E12,3.0,0.07348207348207349,13608.761329305134,1365.5677655677655,
1.5833799817508545E12,3.0,0.07215007215007216,13859.999999999998,1366.3003663003662,
1.583379981758667E12,3.0,0.0725940725940726,13775.229357798164,1368.4981684981683,
1.5833799817664795E12,3.0,0.07348207348207349,13608.761329305134,1369.230769230769,
1.583379981774292E12,3.0,0.0725940725940726,13775.229357798164,1370.6959706959706,
1.5833799817821045E12,3.0,0.07437007437007438,13446.268656716416,1372.161172161172,
1.583379981789917E12,3.0,0.07348207348207349,13608.761329305134,1374.3589743589744,
1.5833799817977295E12,3.0,0.07348207348207349,13608.761329305134,1376.5567765567764,
1.583379981805542E12,3.0,0.07481407481407482,13366.46884272997,1378.7545787545787,
1.5833799818133545E12,3.0,0.07348207348207349,13608.761329305134,1381.6849816849815,
1.583379981821167E12,3.0,0.07481407481407482,13366.46884272997,1383.8827838827838,
1.5833799818289795E12,3.0,0.07481407481407482,13366.46884272997,1386.080586080586,
1.583379981836792E12,3.0,0.07437007437007438,13446.268656716416,1389.0109890109889,
1.5833799818446045E12,3.0,0.0757020757020757,13209.677419354839,1391.2087912087911,
1.583379981852417E12,3.0,0.07437007437007438,13446.268656716416,1392.6739926739926,
1.5833799818602295E12,3.0,0.07481407481407482,13366.46884272997,1394.8717948717947,
1.583379981868042E12,3.0,0.07437007437007438,13446.268656716416,1396.3369963369962,
1.5833799818758545E12,3.0,0.07303807303807304,13691.489361702126,1397.069597069597,
1.583379981883667E12,3.0,0.07392607392607393,13527.027027027027,1397.069597069597,
1.5833799818914795E12,3.0,0.07170607170607173,13945.82043343653,1397.069597069597,
1.583379981899292E12,3.0,0.07215007215007216,13859.999999999998,1395.6043956043954,
1.5833799819071045E12,3.0,0.07215007215007216,13859.999999999998,1394.139194139194,
1.583379981914917E12,3.0,0.0703740703740704,14209.779179810721,1393.4065934065934,
1.5833799819227295E12,3.0,0.07215007215007216,13859.999999999998,1390.4761904761904,
1.583379981930542E12,3.0,0.07126207126207128,14032.710280373829,1389.0109890109889,
1.5833799819383545E12,3.0,0.07170607170607173,13945.82043343653,1386.8131868131868,
1.583379981946167E12,3.0,0.07303807303807304,13691.489361702126,1385.3479853479853,
1.5833799819539795E12,3.0,0.07170607170607173,13945.82043343653,1382.4175824175823,
1.583379981961792E12,3.0,0.07303807303807304,13691.489361702126,1380.2197802197802,
1.5833799819696045E12,3.0,0.07081807081807083,14120.68965517241,1378.7545787545787,
1.583379981977417E12,3.0,0.0694860694860695,14391.373801916929,1376.5567765567764,
1.5833799819852295E12,3.0,0.07081807081807083,14120.68965517241,1374.3589743589744,
1.583379981993042E12,3.0,0.06993006993006995,14299.999999999996,1372.8937728937728,
1.5833799820008545E12,3.0,0.07126207126207128,14032.710280373829,1370.6959706959706,
1.583379982008667E12,3.0,0.07126207126207128,14032.710280373829,1369.9633699633698,
1.5833799820164795E12,3.0,0.07081807081807083,14120.68965517241,1369.230769230769,
1.583379982024292E12,3.0,0.07215007215007216,13859.999999999998,1368.4981684981683,
1.5833799820321045E12,3.0,0.07081807081807083,14120.68965517241,1368.4981684981683,
1.583379982039917E12,3.0,0.07170607170607173,13945.82043343653,1369.9633699633698,
1.5833799820477295E12,3.0,0.07170607170607173,13945.82043343653,1369.9633699633698,
1.583379982055542E12,3.0,0.07081807081807083,14120.68965517241,1369.9633699633698,
1.5833799820633545E12,3.0,0.0725940725940726,13775.229357798164,1370.6959706959706,
1.583379982071167E12,3.0,0.07126207126207128,14032.710280373829,1371.4285714285713,
1.5833799820789795E12,3.0,0.07170607170607173,13945.82043343653,1372.161172161172,
1.583379982086792E12,3.0,0.0725940725940726,13775.229357798164,1373.6263736263736,
1.5833799820946045E12,3.0,0.07126207126207128,14032.710280373829,1373.6263736263736,
1.583379982102417E12,3.0,0.07215007215007216,13859.999999999998,1374.3589743589744,
1.5833799821102295E12,3.0,0.07170607170607173,13945.82043343653,1373.6263736263736,
1.583379982118042E12,3.0,0.07126207126207128,14032.710280373829,1374.3589743589744,
1.5833799821258545E12,3.0,0.0725940725940726,13775.229357798164,1375.091575091575,
1.583379982133667E12,3.0,0.07126207126207128,14032.710280373829,1375.8241758241757,
1.5833799821414795E12,3.0,0.07303807303807304,13691.489361702126,1375.8241758241757,
1.583379982149292E12,3.0,0.07303807303807304,13691.489361702126,1377.2893772893772,
1.5833799821571045E12,3.0,0.07215007215007216,13859.999999999998,1377.2893772893772,
1.583379982164917E12,3.0,0.07392607392607393,13527.027027027027,1378.021978021978,
1.5833799821727295E12,3.0,0.07215007215007216,13859.999999999998,1378.021978021978,
1.583379982180542E12,3.0,0.07303807303807304,13691.489361702126,1378.021978021978,
1.5833799821883545E12,3.0,0.07303807303807304,13691.489361702126,1378.021978021978,
1.583379982196167E12,3.0,0.07215007215007216,13859.999999999998,1378.021978021978,
1.5833799822039795E12,3.0,0.07348207348207349,13608.761329305134,1378.021978021978,
1.583379982211792E12,3.0,0.0725940725940726,13775.229357798164,1378.021978021978,
1.5833799822196045E12,3.0,0.07303807303807304,13691.489361702126,1378.021978021978,
1.583379982227417E12,3.0,0.07348207348207349,13608.761329305134,1378.021978021978,
1.5833799822352295E12,3.0,0.07303807303807304,13691.489361702126,1378.021978021978,
1.583379982243042E12,3.0,0.07481407481407482,13366.46884272997,1377.2893772893772,
1.5833799822508545E12,3.0,0.07437007437007438,13446.268656716416,1378.021978021978,
1.583379982258667E12,3.0,0.07481407481407482,13366.46884272997,1378.021978021978,
1.5833799822664795E12,3.0,0.07614607614607616,13132.65306122449,1377.2893772893772,
1.583379982274292E12,3.0,0.07437007437007438,13446.268656716416,1377.2893772893772,
1.5833799822821045E12,3.0,0.0757020757020757,13209.677419354839,1376.5567765567764,
1.583379982289917E12,3.0,0.07481407481407482,13366.46884272997,1375.8241758241757,
1.5833799822977295E12,3.0,0.07392607392607393,13527.027027027027,1375.8241758241757,
1.583379982305542E12,3.0,0.07437007437007438,13446.268656716416,1375.8241758241757,
1.5833799823133545E12,3.0,0.07170607170607173,13945.82043343653,1377.2893772893772,
1.583379982321167E12,3.0,0.0703740703740704,14209.779179810721,1379.4871794871794,
1.5833799823289795E12,3.0,0.06815406815406817,14672.638436482079,1383.150183150183,
1.583379982336792E12,3.0,0.06549006549006546,15269.491525423737,1389.7435897435896,
1.5833799823446045E12,3.0,0.06682206682206686,14965.11627906976,1397.069597069597,
1.583379982352417E12,3.0,0.06549006549006546,15269.491525423737,1406.5934065934066,
1.5833799823602295E12,3.0,0.06637806637806641,15065.21739130434,1417.5824175824175,
1.583379982368042E12,3.0,0.06637806637806641,15065.21739130434,1427.106227106227,
1.5833799823758545E12,3.0,0.06593406593406591,15166.666666666673,1437.3626373626373,
1.583379982383667E12,3.0,0.06771006771006774,14768.852459016387,1447.6190476190475,
1.5833799823914795E12,3.0,0.06637806637806641,15065.21739130434,1455.6776556776556,
1.583379982399292E12,3.0,0.06726606726606729,14866.336633663359,1461.5384615384614,
1.5833799824071045E12,3.0,0.06815406815406817,14672.638436482079,1464.4688644688645,
1.583379982414917E12,3.0,0.06637806637806641,15065.21739130434,1465.201465201465,
1.5833799824227295E12,3.0,0.06549006549006546,15269.491525423737,1463.003663003663,
1.583379982430542E12,3.0,0.0628260628260628,15916.961130742055,1458.6080586080584,
1.5833799824383545E12,3.0,0.06327006327006324,15805.263157894742,1452.014652014652,
1.583379982446167E12,3.0,0.06460206460206457,15479.381443298977,1443.956043956044,
1.5833799824539795E12,3.0,0.0628260628260628,15916.961130742055,1434.4322344322343,
1.583379982461792E12,3.0,0.06327006327006324,15805.263157894742,1424.1758241758241,
1.5833799824696045E12,3.0,0.0637140637140637,15695.121951219518,1414.6520146520145,
1.583379982477417E12,3.0,0.0637140637140637,15695.121951219518,1403.6630036630036,
1.5833799824852295E12,3.0,0.06460206460206457,15479.381443298977,1394.139194139194,
1.583379982493042E12,3.0,0.0628260628260628,15916.961130742055,1385.3479853479853,
1.5833799825008545E12,3.0,0.0637140637140637,15695.121951219518,1378.021978021978,
1.583379982508667E12,3.0,0.06327006327006324,15805.263157894742,1370.6959706959706,
1.5833799825164795E12,3.0,0.060606060606060594,16500.000000000004,1365.5677655677655,
1.583379982524292E12,3.0,0.0628260628260628,15916.961130742055,1361.904761904762,
1.5833799825321045E12,3.0,0.06193806193806193,16145.161290322585,1359.7069597069597,
1.583379982539917E12,3.0,0.0628260628260628,15916.961130742055,1358.974358974359,
1.5833799825477295E12,3.0,0.0637140637140637,15695.121951219518,1358.2417582417581,
1.583379982555542E12,3.0,0.0628260628260628,15916.961130742055,1358.974358974359,
1.5833799825633545E12,3.0,0.06504606504606503,15373.720136518778,1359.7069597069597,
1.583379982571167E12,3.0,0.06460206460206457,15479.381443298977,1361.904761904762,
1.5833799825789795E12,3.0,0.06415806415806413,15586.505190311425,1363.3699633699632,
1.583379982586792E12,3.0,0.06549006549006546,15269.491525423737,1365.5677655677655,
1.5833799825946045E12,3.0,0.061050061050061034,16380.000000000004,1368.4981684981683,
1.583379982602417E12,3.0,0.06016206016206015,16621.77121771218,1372.161172161172,
1.5833799826102295E12,3.0,0.06016206016206015,16621.77121771218,1375.091575091575,
1.583379982618042E12,3.0,0.06016206016206015,16621.77121771218,1377.2893772893772,
1.5833799826258545E12,3.0,0.061494061494061475,16261.732851985564,1380.952380952381,
1.583379982633667E12,3.0,0.060606060606060594,16500.000000000004,1383.150183150183,
1.5833799826414795E12,3.0,0.06193806193806193,16145.161290322585,1385.3479853479853,
1.583379982649292E12,3.0,0.06238206238206236,16030.24911032029,1387.5457875457876,
1.5833799826571045E12,3.0,0.061494061494061475,16261.732851985564,1389.0109890109889,
1.583379982664917E12,3.0,0.0637140637140637,15695.121951219518,1390.4761904761904,
1.5833799826727295E12,3.0,0.06238206238206236,16030.24911032029,1391.2087912087911,
1.583379982680542E12,3.0,0.0637140637140637,15695.121951219518,1392.6739926739926,
1.5833799826883545E12,3.0,0.06415806415806413,15586.505190311425,1393.4065934065934,
1.583379982696167E12,3.0,0.0628260628260628,15916.961130742055,1394.139194139194,
1.5833799827039795E12,3.0,0.061050061050061034,16380.000000000004,1393.4065934065934,
1.583379982711792E12,3.0,0.059718059718059706,16745.353159851304,1393.4065934065934,
1.5833799827196045E12,3.0,0.06193806193806193,16145.161290322585,1391.9413919413919,
1.583379982727417E12,3.0,0.06415806415806413,15586.505190311425,1389.7435897435896,
1.5833799827352295E12,3.0,0.0637140637140637,15695.121951219518,1389.0109890109889,
1.583379982743042E12,3.0,0.06593406593406591,15166.666666666673,1386.8131868131868,
1.5833799827508545E12,3.0,0.06549006549006546,15269.491525423737,1384.6153846153845,
1.583379982758667E12,3.0,0.06549006549006546,15269.491525423737,1382.4175824175823,
1.5833799827664795E12,3.0,0.06682206682206686,14965.11627906976,1380.2197802197802,
1.583379982774292E12,3.0,0.06549006549006546,15269.491525423737,1377.2893772893772,
1.5833799827821045E12,3.0,0.06726606726606729,14866.336633663359,1375.091575091575,
1.583379982789917E12,3.0,0.06682206682206686,14965.11627906976,1373.6263736263736,
1.5833799827977295E12,3.0,0.06593406593406591,15166.666666666673,1371.4285714285713,
1.583379982805542E12,3.0,0.06726606726606729,14866.336633663359,1369.9633699633698,
1.5833799828133545E12,3.0,0.06637806637806641,15065.21739130434,1369.230769230769,
1.583379982821167E12,3.0,0.06682206682206686,14965.11627906976,1368.4981684981683,
1.5833799828289795E12,3.0,0.06682206682206686,14965.11627906976,1368.4981684981683,
1.583379982836792E12,3.0,0.06637806637806641,15065.21739130434,1368.4981684981683,
1.5833799828446045E12,3.0,0.06815406815406817,14672.638436482079,1368.4981684981683,
1.583379982852417E12,3.0,0.06682206682206686,14965.11627906976,1369.230769230769,
1.5833799828602295E12,3.0,0.06726606726606729,14866.336633663359,1369.230769230769,
1.583379982868042E12,3.0,0.06815406815406817,14672.638436482079,1369.9633699633698,
1.5833799828758545E12,3.0,0.06726606726606729,14866.336633663359,1370.6959706959706,
1.583379982883667E12,3.0,0.06859806859806863,14577.669902912616,1372.161172161172,
1.5833799828914795E12,3.0,0.06815406815406817,14672.638436482079,1370.6959706959706,
1.583379982899292E12,3.0,0.06815406815406817,14672.638436482079,1372.161172161172,
1.5833799829071045E12,3.0,0.06904206904206907,14483.922829581988,1372.8937728937728,
1.583379982914917E12,3.0,0.06771006771006774,14768.852459016387,1372.8937728937728,
1.5833799829227295E12,3.0,0.06859806859806863,14577.669902912616,1372.8937728937728,
1.583379982930542E12,3.0,0.06859806859806863,14577.669902912616,1373.6263736263736,
1.5833799829383545E12,3.0,0.06815406815406817,14672.638436482079,1374.3589743589744,
1.583379982946167E12,3.0,0.06904206904206907,14483.922829581988,1374.3589743589744,
1.5833799829539795E12,3.0,0.06815406815406817,14672.638436482079,1375.8241758241757,
1.583379982961792E12,3.0,0.06859806859806863,14577.669902912616,1375.8241758241757,
1.5833799829696045E12,3.0,0.06193806193806193,16145.161290322585,1375.8241758241757,
1.583379982977417E12,3.0,0.05661005661005661,17664.70588235294,1376.5567765567764,
1.5833799829852295E12,3.0,0.057054057054057056,17527.237354085602,1375.8241758241757,
1.583379982993042E12,3.0,0.05572205572205573,17946.21513944223,1375.8241758241757,
1.5833799830008545E12,3.0,0.057498057498057496,17391.891891891893,1376.5567765567764,
1.583379983008667E12,3.0,0.05661005661005661,17664.70588235294,1376.5567765567764,
1.5833799830164795E12,3.0,0.05483405483405483,18236.842105263157,1376.5567765567764,
1.583379983024292E12,3.0,0.05616605616605617,17804.347826086956,1377.2893772893772,
1.5833799830321045E12,3.0,0.057498057498057496,17391.891891891893,1377.2893772893772,
1.583379983039917E12,3.0,0.059718059718059706,16745.353159851304,1377.2893772893772,
1.5833799830477295E12,3.0,0.06193806193806193,16145.161290322585,1377.2893772893772,
1.583379983055542E12,3.0,0.059718059718059706,16745.353159851304,1377.2893772893772,
1.5833799830633545E12,3.0,0.0628260628260628,15916.961130742055,1377.2893772893772,
1.583379983071167E12,3.0,0.06327006327006324,15805.263157894742,1377.2893772893772,
1.5833799830789795E12,3.0,0.06238206238206236,16030.24911032029,1378.7545787545787,
1.583379983086792E12,3.0,0.06415806415806413,15586.505190311425,1378.7545787545787,
1.5833799830946045E12,3.0,0.06415806415806413,15586.505190311425,1381.6849816849815,
1.583379983102417E12,3.0,0.06637806637806641,15065.21739130434,1385.3479853479853,
1.5833799831102295E12,3.0,0.06771006771006774,14768.852459016387,1391.2087912087911,
1.583379983118042E12,3.0,0.06726606726606729,14866.336633663359,1397.069597069597,
1.5833799831258545E12,3.0,0.0694860694860695,14391.373801916929,1404.3956043956043,
1.583379983133667E12,3.0,0.06904206904206907,14483.922829581988,1412.4542124542124,
1.5833799831414795E12,3.0,0.07081807081807083,14120.68965517241,1420.5128205128203,
1.583379983149292E12,3.0,0.06993006993006995,14299.999999999996,1428.5714285714284,
1.5833799831571045E12,3.0,0.06726606726606729,14866.336633663359,1435.164835164835,
1.583379983164917E12,3.0,0.0694860694860695,14391.373801916929,1441.0256410256409,
1.5833799831727295E12,3.0,0.06904206904206907,14483.922829581988,1443.956043956044,
1.583379983180542E12,3.0,0.06815406815406817,14672.638436482079,1446.153846153846,
1.5833799831883545E12,3.0,0.06904206904206907,14483.922829581988,1445.4212454212454,
1.583379983196167E12,3.0,0.06593406593406591,15166.666666666673,1442.4908424908424,
1.5833799832039795E12,3.0,0.06593406593406591,15166.666666666673,1439.5604395604394,
1.583379983211792E12,3.0,0.06637806637806641,15065.21739130434,1433.6996336996335,
1.5833799832196045E12,3.0,0.06726606726606729,14866.336633663359,1427.8388278388277,
1.583379983227417E12,3.0,0.06593406593406591,15166.666666666673,1420.5128205128203,
1.5833799832352295E12,3.0,0.06504606504606503,15373.720136518778,1412.4542124542124,
1.583379983243042E12,3.0,0.06682206682206686,14965.11627906976,1405.128205128205,
1.5833799832508545E12,3.0,0.06771006771006774,14768.852459016387,1396.3369963369962,
1.583379983258667E12,3.0,0.06682206682206686,14965.11627906976,1389.0109890109889,
1.5833799832664795E12,3.0,0.06726606726606729,14866.336633663359,1382.4175824175823,
1.583379983274292E12,3.0,0.06637806637806641,15065.21739130434,1377.2893772893772,
1.5833799832821045E12,3.0,0.06815406815406817,14672.638436482079,1372.8937728937728,
1.583379983289917E12,3.0,0.06993006993006995,14299.999999999996,1370.6959706959706,
1.5833799832977295E12,3.0,0.06771006771006774,14768.852459016387,1368.4981684981683,
1.583379983305542E12,3.0,0.06859806859806863,14577.669902912616,1367.032967032967,
1.5833799833133545E12,3.0,0.06815406815406817,14672.638436482079,1365.5677655677655,
1.583379983321167E12,3.0,0.0694860694860695,14391.373801916929,1364.8351648351647,
1.5833799833289795E12,3.0,0.06993006993006995,14299.999999999996,1365.5677655677655,
1.583379983336792E12,3.0,0.06993006993006995,14299.999999999996,1366.3003663003662,
1.5833799833446045E12,3.0,0.07348207348207349,13608.761329305134,1366.3003663003662,
1.583379983352417E12,3.0,0.07348207348207349,13608.761329305134,1367.032967032967,
1.5833799833602295E12,3.0,0.07525807525807526,13287.610619469026,1368.4981684981683,
1.583379983368042E12,3.0,0.07747807747807747,12906.876790830947,1369.230769230769,
1.5833799833758545E12,3.0,0.07703407703407703,12981.268011527378,1370.6959706959706,
1.583379983383667E12,3.0,0.08014208014208013,12477.839335180059,1371.4285714285713,
1.5833799833914795E12,3.0,0.08147408147408146,12273.841961852864,1372.8937728937728,
1.583379983399292E12,3.0,0.0819180819180819,12207.317073170734,1374.3589743589744,
1.5833799834071045E12,3.0,0.0841380841380841,11885.224274406337,1375.8241758241757,
1.583379983414917E12,3.0,0.08369408369408367,11948.27586206897,1378.021978021978,
1.5833799834227295E12,3.0,0.0863580863580864,11579.691516709507,1379.4871794871794,
1.583379983430542E12,3.0,0.08769008769008772,11403.797468354427,1380.2197802197802,
1.5833799834383545E12,3.0,0.08769008769008772,11403.797468354427,1382.4175824175823,
1.583379983446167E12,3.0,0.08991008991008992,11122.22222222222,1383.150183150183,
1.5833799834539795E12,3.0,0.08902208902208905,11233.167082294261,1383.150183150183,
1.583379983461792E12,3.0,0.09035409035409037,11067.567567567567,1383.8827838827838,
1.5833799834696045E12,3.0,0.09079809079809081,11013.447432762834,1383.150183150183,
1.583379983477417E12,3.0,0.08991008991008992,11122.22222222222,1383.150183150183,
1.5833799834852295E12,3.0,0.09213009213009214,10854.216867469879,1381.6849816849815,
1.583379983493042E12,3.0,0.09124209124209125,10959.854014598539,1380.2197802197802,
1.5833799835008545E12,3.0,0.09213009213009214,10854.216867469879,1378.7545787545787,
1.583379983508667E12,3.0,0.09346209346209346,10699.524940617577,1377.2893772893772,
1.5833799835164795E12,3.0,0.09213009213009214,10854.216867469879,1375.091575091575,
1.583379983524292E12,3.0,0.09301809301809302,10750.596658711216,1373.6263736263736,
1.5833799835321045E12,3.0,0.0916860916860917,10906.779661016948,1371.4285714285713,
1.583379983539917E12,3.0,0.09079809079809081,11013.447432762834,1369.9633699633698,
1.5833799835477295E12,3.0,0.0916860916860917,10906.779661016948,1369.230769230769,
1.583379983555542E12,3.0,0.08991008991008992,11122.22222222222,1368.4981684981683,
1.5833799835633545E12,3.0,0.09079809079809081,11013.447432762834,1368.4981684981683,
1.583379983571167E12,3.0,0.08946608946608949,11177.419354838707,1367.7655677655678,
1.5833799835789795E12,3.0,0.08769008769008772,11403.797468354427,1367.7655677655678,
1.583379983586792E12,3.0,0.0885780885780886,11289.473684210523,1367.032967032967,
1.5833799835946045E12,3.0,0.0863580863580864,11579.691516709507,1367.032967032967,
1.583379983602417E12,3.0,0.08680208680208684,11520.460358056262,1367.7655677655678,
1.5833799836102295E12,3.0,0.08724608724608728,11461.832061068699,1367.032967032967,
1.583379983618042E12,3.0,0.08591408591408595,11639.534883720926,1367.032967032967,
1.5833799836258545E12,3.0,0.08813408813408816,11346.347607052894,1368.4981684981683,
1.583379983633667E12,3.0,0.08680208680208684,11520.460358056262,1369.230769230769,
1.5833799836414795E12,3.0,0.08769008769008772,11403.797468354427,1369.9633699633698,
1.583379983649292E12,3.0,0.0885780885780886,11289.473684210523,1372.161172161172,
1.5833799836571045E12,3.0,0.08724608724608728,11461.832061068699,1373.6263736263736,
1.583379983664917E12,3.0,0.08902208902208905,11233.167082294261,1374.3589743589744,
1.5833799836727295E12,3.0,0.0863580863580864,11579.691516709507,1376.5567765567764,
1.583379983680542E12,3.0,0.08591408591408595,11639.534883720926,1378.021978021978,
1.5833799836883545E12,3.0,0.08591408591408595,11639.534883720926,1378.7545787545787,
1.583379983696167E12,3.0,0.08325008325008322,12012.000000000004,1380.2197802197802,
1.5833799837039795E12,3.0,0.08458208458208455,11822.834645669296,1381.6849816849815,
1.583379983711792E12,3.0,0.08369408369408367,11948.27586206897,1382.4175824175823,
1.5833799837196045E12,3.0,0.08325008325008322,12012.000000000004,1383.150183150183,
1.583379983727417E12,3.0,0.08502608502608501,11761.09660574413,1382.4175824175823,
1.5833799837352295E12,3.0,0.08325008325008322,12012.000000000004,1382.4175824175823,
1.583379983743042E12,3.0,0.08458208458208455,11822.834645669296,1380.952380952381,
1.5833799837508545E12,3.0,0.0841380841380841,11885.224274406337,1380.952380952381,
1.583379983758667E12,3.0,0.08280608280608279,12076.407506702417,1380.2197802197802,
1.5833799837664795E12,3.0,0.08458208458208455,11822.834645669296,1378.7545787545787,
1.583379983774292E12,3.0,0.08280608280608279,12076.407506702417,1378.021978021978,
1.5833799837821045E12,3.0,0.08147408147408146,12273.841961852864,1378.021978021978,
1.583379983789917E12,3.0,0.0757020757020757,13209.677419354839,1377.2893772893772,
1.5833799837977295E12,3.0,0.06549006549006546,15269.491525423737,1377.2893772893772,
1.583379983805542E12,3.0,0.05794205794205794,17258.620689655174,1377.2893772893772,
1.5833799838133545E12,3.0,0.05039405039405041,19843.612334801754,1378.7545787545787,
1.583379983821167E12,3.0,0.04506604506604504,22189.655172413804,1381.6849816849815,
1.5833799838289795E12,3.0,0.04417804417804416,22635.67839195981,1383.8827838827838,
1.583379983836792E12,3.0,0.039738039738039736,25164.804469273746,1385.3479853479853,
1.5833799838446045E12,3.0,0.0415140415140415,24088.235294117654,1387.5457875457876,
1.583379983852417E12,3.0,0.041070041070041065,24348.648648648654,1390.4761904761904,
1.5833799838602295E12,3.0,0.044622044622044596,22410.447761194042,1392.6739926739926,
1.583379983868042E12,3.0,0.04950604950604953,20199.551569506715,1395.6043956043954,
1.5833799838758545E12,3.0,0.04950604950604953,20199.551569506715,1400.0,
1.583379983883667E12,3.0,0.05261405261405263,19006.329113924046,1404.3956043956043,
1.5833799838914795E12,3.0,0.05217005217005219,19168.085106382972,1410.2564102564102,
1.583379983899292E12,3.0,0.05172605172605174,19332.618025751068,1416.117216117216,
1.5833799839071045E12,3.0,0.05350205350205352,18690.8713692946,1421.9780219780218,
1.583379983914917E12,3.0,0.05394605394605396,18537.037037037033,1427.8388278388277,
1.5833799839227295E12,3.0,0.05661005661005661,17664.70588235294,1433.6996336996335,
1.583379983930542E12,3.0,0.05527805527805528,18090.36144578313,1438.8278388278388,
1.5833799839383545E12,3.0,0.05261405261405263,19006.329113924046,1441.7582417582416,
1.583379983946167E12,3.0,0.05305805305805308,18847.280334728028,1443.956043956044,
1.5833799839539795E12,3.0,0.043734043734043715,22865.48223350255,1445.4212454212454,
1.583379983961792E12,3.0,0.041070041070041065,24348.648648648654,1443.956043956044,
1.5833799839696045E12,3.0,0.042402042402042386,23583.76963350786,1441.0256410256409,
1.583379983977417E12,3.0,0.04329004329004327,23100.00000000001,1436.6300366300366,
1.5833799839852295E12,3.0,0.04728604728604726,21147.887323943676,1431.5018315018315,
1.583379983993042E12,3.0,0.043734043734043715,22865.48223350255,1424.9084249084249,
1.5833799840008545E12,3.0,0.042402042402042386,23583.76963350786,1418.3150183150183,
1.583379984008667E12,3.0,0.04506604506604504,22189.655172413804,1410.989010989011,
1.5833799840164795E12,3.0,0.044622044622044596,22410.447761194042,1402.197802197802,
1.583379984024292E12,3.0,0.04906204906204909,20382.352941176458,1391.9413919413919,
1.5833799840321045E12,3.0,0.05039405039405041,19843.612334801754,1383.150183150183,
1.583379984039917E12,3.0,0.05039405039405041,19843.612334801754,1375.8241758241757,
1.5833799840477295E12,3.0,0.05305805305805308,18847.280334728028,1369.230769230769,
1.583379984055542E12,3.0,0.05217005217005219,19168.085106382972,1364.102564102564,
1.5833799840633545E12,3.0,0.05527805527805528,18090.36144578313,1360.4395604395604,
1.583379984071167E12,3.0,0.05661005661005661,17664.70588235294,1358.974358974359,
1.5833799840789795E12,3.0,0.05572205572205573,17946.21513944223,1358.974358974359,
1.583379984086792E12,3.0,0.05527805527805528,18090.36144578313,1361.1721611721612,
1.5833799840946045E12,3.0,0.04906204906204909,20382.352941176458,1363.3699633699632,
1.583379984102417E12,3.0,0.046842046842046806,21348.341232227503,1367.032967032967,
1.5833799841102295E12,3.0,0.045954045954045925,21760.869565217406,1372.161172161172,
1.583379984118042E12,3.0,0.045510045510045484,21973.17073170733,1375.8241758241757,
1.5833799841258545E12,3.0,0.05039405039405041,19843.612334801754,1380.2197802197802,
1.583379984133667E12,3.0,0.05217005217005219,19168.085106382972,1383.8827838827838,
1.5833799841414795E12,3.0,0.05483405483405483,18236.842105263157,1387.5457875457876,
1.583379984149292E12,3.0,0.05616605616605617,17804.347826086956,1389.7435897435896,
1.5833799841571045E12,3.0,0.05527805527805528,18090.36144578313,1391.2087912087911,
1.583379984164917E12,3.0,0.057498057498057496,17391.891891891893,1391.9413919413919,
1.5833799841727295E12,3.0,0.057498057498057496,17391.891891891893,1392.6739926739926,
1.583379984180542E12,3.0,0.05838605838605838,17127.376425855517,1392.6739926739926,
1.5833799841883545E12,3.0,0.061050061050061034,16380.000000000004,1391.9413919413919,
1.583379984196167E12,3.0,0.06016206016206015,16621.77121771218,1391.2087912087911,
1.5833799842039795E12,3.0,0.06327006327006324,15805.263157894742,1389.7435897435896,
1.583379984211792E12,3.0,0.06327006327006324,15805.263157894742,1388.278388278388,
1.5833799842196045E12,3.0,0.06327006327006324,15805.263157894742,1386.080586080586,
1.583379984227417E12,3.0,0.06637806637806641,15065.21739130434,1384.6153846153845,
1.5833799842352295E12,3.0,0.06504606504606503,15373.720136518778,1381.6849816849815,
1.583379984243042E12,3.0,0.06682206682206686,14965.11627906976,1380.952380952381,
1.5833799842508545E12,3.0,0.06859806859806863,14577.669902912616,1379.4871794871794,
1.583379984258667E12,3.0,0.06637806637806641,15065.21739130434,1377.2893772893772,
1.5833799842664795E12,3.0,0.06904206904206907,14483.922829581988,1375.8241758241757,
1.583379984274292E12,3.0,0.06771006771006774,14768.852459016387,1375.091575091575,
1.5833799842821045E12,3.0,0.06859806859806863,14577.669902912616,1374.3589743589744,
1.583379984289917E12,3.0,0.06993006993006995,14299.999999999996,1375.8241758241757,
1.5833799842977295E12,3.0,0.06815406815406817,14672.638436482079,1376.5567765567764,
1.583379984305542E12,3.0,0.0703740703740704,14209.779179810721,1378.7545787545787,
1.5833799843133545E12,3.0,0.06859806859806863,14577.669902912616,1381.6849816849815,
1.583379984321167E12,3.0,0.06549006549006546,15269.491525423737,1383.8827838827838,
1.5833799843289795E12,3.0,0.06593406593406591,15166.666666666673,1386.080586080586,
1.583379984336792E12,3.0,0.0637140637140637,15695.121951219518,1388.278388278388,
1.5833799843446045E12,3.0,0.06682206682206686,14965.11627906976,1390.4761904761904,
1.583379984352417E12,3.0,0.06815406815406817,14672.638436482079,1391.2087912087911,
1.5833799843602295E12,3.0,0.06904206904206907,14483.922829581988,1391.9413919413919,
1.583379984368042E12,3.0,0.07303807303807304,13691.489361702126,1391.9413919413919,
1.5833799843758545E12,3.0,0.0725940725940726,13775.229357798164,1391.2087912087911,
1.583379984383667E12,3.0,0.07437007437007438,13446.268656716416,1389.0109890109889,
1.5833799843914795E12,3.0,0.07481407481407482,13366.46884272997,1387.5457875457876,
1.583379984399292E12,3.0,0.07348207348207349,13608.761329305134,1385.3479853479853,
1.5833799844071045E12,3.0,0.07614607614607616,13132.65306122449,1382.4175824175823,
1.583379984414917E12,3.0,0.07525807525807526,13287.610619469026,1378.7545787545787,
1.5833799844227295E12,3.0,0.07747807747807747,12906.876790830947,1377.2893772893772,
1.583379984430542E12,3.0,0.0788100788100788,12688.7323943662,1375.091575091575,
1.5833799844383545E12,3.0,0.07792207792207792,12833.333333333334,1372.8937728937728,
1.583379984446167E12,3.0,0.08103008103008101,12341.095890410961,1370.6959706959706,
1.5833799844539795E12,3.0,0.08058608058608056,12409.090909090912,1368.4981684981683,
1.583379984461792E12,3.0,0.0819180819180819,12207.317073170734,1367.032967032967,
1.5833799844696045E12,3.0,0.08369408369408367,11948.27586206897,1366.3003663003662,
1.583379984477417E12,3.0,0.08236208236208233,12141.509433962268,1365.5677655677655,
1.5833799844852295E12,3.0,0.08458208458208455,11822.834645669296,1365.5677655677655,
1.583379984493042E12,3.0,0.0841380841380841,11885.224274406337,1366.3003663003662,
1.5833799845008545E12,3.0,0.0841380841380841,11885.224274406337,1366.3003663003662,
1.583379984508667E12,3.0,0.0863580863580864,11579.691516709507,1367.7655677655678,
1.5833799845164795E12,3.0,0.08502608502608501,11761.09660574413,1369.230769230769,
1.583379984524292E12,3.0,0.08813408813408816,11346.347607052894,1371.4285714285713,
1.5833799845321045E12,3.0,0.08991008991008992,11122.22222222222,1374.3589743589744,
1.583379984539917E12,3.0,0.08946608946608949,11177.419354838707,1375.8241758241757,
1.5833799845477295E12,3.0,0.09301809301809302,10750.596658711216,1378.7545787545787,
1.583379984555542E12,3.0,0.09257409257409258,10802.158273381294,1379.4871794871794,
1.5833799845633545E12,3.0,0.09301809301809302,10750.596658711216,1380.2197802197802,
1.583379984571167E12,3.0,0.08991008991008992,11122.22222222222,1382.4175824175823,
1.5833799845789795E12,3.0,0.0854700854700855,11699.999999999996,1383.8827838827838,
1.583379984586792E12,3.0,0.08591408591408595,11639.534883720926,1383.8827838827838,
1.5833799845946045E12,3.0,0.08325008325008322,12012.000000000004,1384.6153846153845,
1.583379984602417E12,3.0,0.08325008325008322,12012.000000000004,1385.3479853479853,
1.5833799846102295E12,3.0,0.0841380841380841,11885.224274406337,1385.3479853479853,
1.583379984618042E12,3.0,0.08236208236208233,12141.509433962268,1385.3479853479853,
1.5833799846258545E12,3.0,0.08458208458208455,11822.834645669296,1386.080586080586,
1.583379984633667E12,3.0,0.08369408369408367,11948.27586206897,1386.8131868131868,
1.5833799846414795E12,3.0,0.08458208458208455,11822.834645669296,1388.278388278388,
1.583379984649292E12,3.0,0.08591408591408595,11639.534883720926,1391.2087912087911,
1.5833799846571045E12,3.0,0.0841380841380841,11885.224274406337,1394.8717948717947,
1.583379984664917E12,3.0,0.0854700854700855,11699.999999999996,1399.2673992673992,
1.5833799846727295E12,3.0,0.08502608502608501,11761.09660574413,1405.128205128205,
1.583379984680542E12,3.0,0.08369408369408367,11948.27586206897,1412.4542124542124,
1.5833799846883545E12,3.0,0.08458208458208455,11822.834645669296,1419.047619047619,
1.583379984696167E12,3.0,0.08236208236208233,12141.509433962268,1427.106227106227,
1.5833799847039795E12,3.0,0.08280608280608279,12076.407506702417,1435.164835164835,
1.583379984711792E12,3.0,0.0819180819180819,12207.317073170734,1441.0256410256409,
1.5833799847196045E12,3.0,0.08058608058608056,12409.090909090912,1447.6190476190475,
1.583379984727417E12,3.0,0.08236208236208233,12141.509433962268,1451.2820512820513,
1.5833799847352295E12,3.0,0.08014208014208013,12477.839335180059,1453.4798534798533,
1.583379984743042E12,3.0,0.08058608058608056,12409.090909090912,1454.212454212454,
1.5833799847508545E12,3.0,0.08103008103008101,12341.095890410961,1451.2820512820513,
1.583379984758667E12,3.0,0.07969807969807968,12547.353760445685,1446.8864468864467,
1.5833799847664795E12,3.0,0.0819180819180819,12207.317073170734,1440.2930402930401,
1.583379984774292E12,3.0,0.0819180819180819,12207.317073170734,1432.2344322344322,
1.5833799847821045E12,3.0,0.08369408369408367,11948.27586206897,1423.4432234432234,
1.583379984789917E12,3.0,0.08591408591408595,11639.534883720926,1413.9194139194137,
1.5833799847977295E12,3.0,0.08458208458208455,11822.834645669296,1404.3956043956043,
1.583379984805542E12,3.0,0.08680208680208684,11520.460358056262,1394.8717948717947,
1.5833799848133545E12,3.0,0.0863580863580864,11579.691516709507,1386.080586080586,
1.583379984821167E12,3.0,0.0854700854700855,11699.999999999996,1380.2197802197802,
1.5833799848289795E12,3.0,0.08724608724608728,11461.832061068699,1372.8937728937728,
1.583379984836792E12,3.0,0.08502608502608501,11761.09660574413,1367.7655677655678,
1.5833799848446045E12,3.0,0.0854700854700855,11699.999999999996,1363.3699633699632,
1.583379984852417E12,3.0,0.08369408369408367,11948.27586206897,1359.7069597069597,
1.5833799848602295E12,3.0,0.08014208014208013,12477.839335180059,1358.2417582417581,
1.583379984868042E12,3.0,0.07969807969807968,12547.353760445685,1356.7765567765566,
1.5833799848758545E12,3.0,0.06815406815406817,14672.638436482079,1356.7765567765566,
1.583379984883667E12,3.0,0.06016206016206015,16621.77121771218,1357.5091575091574,
1.5833799848914795E12,3.0,0.058830058830058825,16998.113207547172,1358.2417582417581,
1.583379984899292E12,3.0,0.0637140637140637,15695.121951219518,1359.7069597069597,
1.5833799849071045E12,3.0,0.06859806859806863,14577.669902912616,1361.1721611721612,
1.583379984914917E12,3.0,0.06637806637806641,15065.21739130434,1362.6373626373625,
1.5833799849227295E12,3.0,0.06593406593406591,15166.666666666673,1364.102564102564,
1.583379984930542E12,3.0,0.0637140637140637,15695.121951219518,1366.3003663003662,
1.5833799849383545E12,3.0,0.06016206016206015,16621.77121771218,1368.4981684981683,
1.583379984946167E12,3.0,0.06016206016206015,16621.77121771218,1370.6959706959706,
1.5833799849539795E12,3.0,0.058830058830058825,16998.113207547172,1373.6263736263736,
1.583379984961792E12,3.0,0.05927405927405926,16870.786516853936,1375.8241758241757,
1.5833799849696045E12,3.0,0.061050061050061034,16380.000000000004,1378.7545787545787,
1.583379984977417E12,3.0,0.06016206016206015,16621.77121771218,1381.6849816849815,
1.5833799849852295E12,3.0,0.06327006327006324,15805.263157894742,1383.8827838827838,
1.583379984993042E12,3.0,0.0637140637140637,15695.121951219518,1386.8131868131868,
1.5833799850008545E12,3.0,0.06415806415806413,15586.505190311425,1389.0109890109889,
1.583379985008667E12,3.0,0.06771006771006774,14768.852459016387,1390.4761904761904,
1.5833799850164795E12,3.0,0.06637806637806641,15065.21739130434,1393.4065934065934,
1.583379985024292E12,3.0,0.06859806859806863,14577.669902912616,1395.6043956043954,
1.5833799850321045E12,3.0,0.0694860694860695,14391.373801916929,1396.3369963369962,
1.583379985039917E12,3.0,0.06904206904206907,14483.922829581988,1397.8021978021977,
1.5833799850477295E12,3.0,0.07170607170607173,13945.82043343653,1400.0,
1.583379985055542E12,3.0,0.07126207126207128,14032.710280373829,1400.7326007326005,
1.5833799850633545E12,3.0,0.0725940725940726,13775.229357798164,1400.7326007326005,
1.583379985071167E12,3.0,0.07392607392607393,13527.027027027027,1400.7326007326005,
1.5833799850789795E12,3.0,0.07303807303807304,13691.489361702126,1399.2673992673992,
1.583379985086792E12,3.0,0.0757020757020757,13209.677419354839,1397.8021978021977,
1.5833799850946045E12,3.0,0.07525807525807526,13287.610619469026,1395.6043956043954,
1.583379985102417E12,3.0,0.07525807525807526,13287.610619469026,1393.4065934065934,
1.5833799851102295E12,3.0,0.0757020757020757,13209.677419354839,1390.4761904761904,
1.583379985118042E12,3.0,0.07392607392607393,13527.027027027027,1388.278388278388,
1.5833799851258545E12,3.0,0.0757020757020757,13209.677419354839,1386.080586080586,
1.583379985133667E12,3.0,0.0757020757020757,13209.677419354839,1383.150183150183,
1.5833799851414795E12,3.0,0.0757020757020757,13209.677419354839,1380.2197802197802,
1.583379985149292E12,3.0,0.07747807747807747,12906.876790830947,1378.7545787545787,
1.5833799851571045E12,3.0,0.07614607614607616,13132.65306122449,1376.5567765567764,
1.583379985164917E12,3.0,0.07792207792207792,12833.333333333334,1374.3589743589744,
1.5833799851727295E12,3.0,0.07792207792207792,12833.333333333334,1373.6263736263736,
1.583379985180542E12,3.0,0.07703407703407703,12981.268011527378,1372.161172161172,
1.5833799851883545E12,3.0,0.07925407925407923,12617.647058823532,1372.161172161172,
1.583379985196167E12,3.0,0.07747807747807747,12906.876790830947,1372.161172161172,
1.5833799852039795E12,3.0,0.07836607836607835,12760.623229461758,1372.161172161172,
1.583379985211792E12,3.0,0.0788100788100788,12688.7323943662,1372.8937728937728,
1.5833799852196045E12,3.0,0.07614607614607616,13132.65306122449,1372.8937728937728,
1.583379985227417E12,3.0,0.07481407481407482,13366.46884272997,1373.6263736263736,
1.5833799852352295E12,3.0,0.06815406815406817,14672.638436482079,1373.6263736263736,
1.583379985243042E12,3.0,0.06549006549006546,15269.491525423737,1374.3589743589744,
1.5833799852508545E12,3.0,0.06549006549006546,15269.491525423737,1375.091575091575,
1.583379985258667E12,3.0,0.06460206460206457,15479.381443298977,1375.8241758241757,
1.5833799852664795E12,3.0,0.06682206682206686,14965.11627906976,1375.8241758241757,
1.583379985274292E12,3.0,0.06637806637806641,15065.21739130434,1375.8241758241757,
1.5833799852821045E12,3.0,0.06682206682206686,14965.11627906976,1376.5567765567764,
1.583379985289917E12,3.0,0.06904206904206907,14483.922829581988,1378.7545787545787,
1.5833799852977295E12,3.0,0.06771006771006774,14768.852459016387,1378.7545787545787,
1.583379985305542E12,3.0,0.0694860694860695,14391.373801916929,1378.7545787545787,
1.5833799853133545E12,3.0,0.0694860694860695,14391.373801916929,1379.4871794871794,
1.583379985321167E12,3.0,0.0694860694860695,14391.373801916929,1379.4871794871794,
1.5833799853289795E12,3.0,0.07126207126207128,14032.710280373829,1379.4871794871794,
1.583379985336792E12,3.0,0.06993006993006995,14299.999999999996,1379.4871794871794,
1.5833799853446045E12,3.0,0.06815406815406817,14672.638436482079,1378.7545787545787,
1.583379985352417E12,3.0,0.06682206682206686,14965.11627906976,1379.4871794871794,
1.5833799853602295E12,3.0,0.06504606504606503,15373.720136518778,1378.7545787545787,
1.583379985368042E12,3.0,0.06327006327006324,15805.263157894742,1378.7545787545787,
1.5833799853758545E12,3.0,0.06016206016206015,16621.77121771218,1378.021978021978,
1.583379985383667E12,3.0,0.06016206016206015,16621.77121771218,1378.7545787545787,
1.5833799853914795E12,3.0,0.061050061050061034,16380.000000000004,1380.2197802197802,
1.583379985399292E12,3.0,0.059718059718059706,16745.353159851304,1381.6849816849815,
1.5833799854071045E12,3.0,0.061494061494061475,16261.732851985564,1385.3479853479853,
1.583379985414917E12,3.0,0.060606060606060594,16500.000000000004,1389.0109890109889,
1.5833799854227295E12,3.0,0.060606060606060594,16500.000000000004,1394.139194139194,
1.583379985430542E12,3.0,0.061494061494061475,16261.732851985564,1401.4652014652013,
1.5833799854383545E12,3.0,0.059718059718059706,16745.353159851304,1409.5238095238094,
1.583379985446167E12,3.0,0.061494061494061475,16261.732851985564,1416.8498168498168,
1.5833799854539795E12,3.0,0.061050061050061034,16380.000000000004,1426.3736263736262,
1.583379985461792E12,3.0,0.061050061050061034,16380.000000000004,1433.6996336996335,
1.5833799854696045E12,3.0,0.0628260628260628,15916.961130742055,1441.0256410256409,
1.583379985477417E12,3.0,0.061050061050061034,16380.000000000004,1446.8864468864467,
1.5833799854852295E12,3.0,0.0628260628260628,15916.961130742055,1451.2820512820513,
1.583379985493042E12,3.0,0.0628260628260628,15916.961130742055,1453.4798534798533,
1.5833799855008545E12,3.0,0.06193806193806193,16145.161290322585,1454.212454212454,
1.583379985508667E12,3.0,0.0637140637140637,15695.121951219518,1452.7472527472526,
1.5833799855164795E12,3.0,0.06193806193806193,16145.161290322585,1449.084249084249,
1.583379985524292E12,3.0,0.0628260628260628,15916.961130742055,1443.956043956044,
1.5833799855321045E12,3.0,0.06327006327006324,15805.263157894742,1438.095238095238,
1.583379985539917E12,3.0,0.06193806193806193,16145.161290322585,1431.5018315018315,
1.5833799855477295E12,3.0,0.06415806415806413,15586.505190311425,1424.1758241758241,
1.583379985555542E12,3.0,0.0628260628260628,15916.961130742055,1415.3846153846152,
1.5833799855633545E12,3.0,0.0628260628260628,15916.961130742055,1407.3260073260071,
1.583379985571167E12,3.0,0.06415806415806413,15586.505190311425,1400.0,
1.5833799855789795E12,3.0,0.06238206238206236,16030.24911032029,1391.9413919413919,
1.583379985586792E12,3.0,0.06460206460206457,15479.381443298977,1386.080586080586,
1.5833799855946045E12,3.0,0.06327006327006324,15805.263157894742,1381.6849816849815,
1.583379985602417E12,3.0,0.06327006327006324,15805.263157894742,1376.5567765567764,
1.5833799856102295E12,3.0,0.06460206460206457,15479.381443298977,1375.091575091575,
1.583379985618042E12,3.0,0.0628260628260628,15916.961130742055,1373.6263736263736,
1.5833799856258545E12,3.0,0.06460206460206457,15479.381443298977,1372.161172161172,
1.583379985633667E12,3.0,0.06415806415806413,15586.505190311425,1370.6959706959706,
1.5833799856414795E12,3.0,0.06327006327006324,15805.263157894742,1369.9633699633698,
1.583379985649292E12,3.0,0.06504606504606503,15373.720136518778,1370.6959706959706,
1.5833799856571045E12,3.0,0.06327006327006324,15805.263157894742,1371.4285714285713,
1.583379985664917E12,3.0,0.06460206460206457,15479.381443298977,1372.8937728937728,
1.5833799856727295E12,3.0,0.06460206460206457,15479.381443298977,1375.091575091575,
1.583379985680542E12,3.0,0.0637140637140637,15695.121951219518,1377.2893772893772,
1.5833799856883545E12,3.0,0.06549006549006546,15269.491525423737,1379.4871794871794,
1.583379985696167E12,3.0,0.0637140637140637,15695.121951219518,1381.6849816849815,
1.5833799857039795E12,3.0,0.06460206460206457,15479.381443298977,1383.8827838827838,
1.583379985711792E12,3.0,0.06504606504606503,15373.720136518778,1386.080586080586,
1.5833799857196045E12,3.0,0.0637140637140637,15695.121951219518,1388.278388278388,
1.583379985727417E12,3.0,0.06549006549006546,15269.491525423737,1389.7435897435896,
1.5833799857352295E12,3.0,0.06415806415806413,15586.505190311425,1391.9413919413919,
1.583379985743042E12,3.0,0.06415806415806413,15586.505190311425,1393.4065934065934,
1.5833799857508545E12,3.0,0.06549006549006546,15269.491525423737,1394.8717948717947,
1.583379985758667E12,3.0,0.0637140637140637,15695.121951219518,1397.069597069597,
1.5833799857664795E12,3.0,0.06504606504606503,15373.720136518778,1398.5347985347985,
1.583379985774292E12,3.0,0.06415806415806413,15586.505190311425,1400.0,
1.5833799857821045E12,3.0,0.0628260628260628,15916.961130742055,1400.7326007326005,
1.583379985789917E12,3.0,0.0637140637140637,15695.121951219518,1400.7326007326005,
1.5833799857977295E12,3.0,0.06193806193806193,16145.161290322585,1401.4652014652013,
1.583379985805542E12,3.0,0.0628260628260628,15916.961130742055,1400.7326007326005,
1.5833799858133545E12,3.0,0.0628260628260628,15916.961130742055,1399.2673992673992,
1.583379985821167E12,3.0,0.06193806193806193,16145.161290322585,1397.8021978021977,
1.5833799858289795E12,3.0,0.0637140637140637,15695.121951219518,1396.3369963369962,
1.583379985836792E12,3.0,0.06238206238206236,16030.24911032029,1394.8717948717947,
1.5833799858446045E12,3.0,0.06327006327006324,15805.263157894742,1393.4065934065934,
1.583379985852417E12,3.0,0.0637140637140637,15695.121951219518,1391.2087912087911,
1.5833799858602295E12,3.0,0.0628260628260628,15916.961130742055,1389.7435897435896,
1.583379985868042E12,3.0,0.06460206460206457,15479.381443298977,1387.5457875457876,
1.5833799858758545E12,3.0,0.06327006327006324,15805.263157894742,1386.8131868131868,
1.583379985883667E12,3.0,0.0637140637140637,15695.121951219518,1385.3479853479853,
1.5833799858914795E12,3.0,0.06460206460206457,15479.381443298977,1383.8827838827838,
1.583379985899292E12,3.0,0.06327006327006324,15805.263157894742,1383.150183150183,
1.5833799859071045E12,3.0,0.06460206460206457,15479.381443298977,1382.4175824175823,
1.583379985914917E12,3.0,0.0637140637140637,15695.121951219518,1382.4175824175823,
1.5833799859227295E12,3.0,0.0637140637140637,15695.121951219518,1381.6849816849815,
1.583379985930542E12,3.0,0.06504606504606503,15373.720136518778,1381.6849816849815,
1.5833799859383545E12,3.0,0.06327006327006324,15805.263157894742,1382.4175824175823,
1.583379985946167E12,3.0,0.06460206460206457,15479.381443298977,1381.6849816849815,
1.5833799859539795E12,3.0,0.06460206460206457,15479.381443298977,1382.4175824175823,
1.583379985961792E12,3.0,0.0637140637140637,15695.121951219518,1382.4175824175823,
1.5833799859696045E12,3.0,0.06504606504606503,15373.720136518778,1382.4175824175823,
1.583379985977417E12,3.0,0.0637140637140637,15695.121951219518,1383.150183150183,
1.5833799859852295E12,3.0,0.06460206460206457,15479.381443298977,1383.150183150183,
1.583379985993042E12,3.0,0.06460206460206457,15479.381443298977,1382.4175824175823,
1.5833799860008545E12,3.0,0.0628260628260628,15916.961130742055,1382.4175824175823,
1.583379986008667E12,3.0,0.0637140637140637,15695.121951219518,1382.4175824175823,
1.5833799860164795E12,3.0,0.06238206238206236,16030.24911032029,1382.4175824175823,
1.583379986024292E12,3.0,0.0637140637140637,15695.121951219518,1381.6849816849815,
1.5833799860321045E12,3.0,0.06504606504606503,15373.720136518778,1381.6849816849815,
1.583379986039917E12,3.0,0.0637140637140637,15695.121951219518,1383.150183150183,
1.5833799860477295E12,3.0,0.06593406593406591,15166.666666666673,1383.8827838827838,
1.583379986055542E12,3.0,0.06504606504606503,15373.720136518778,1385.3479853479853,
1.5833799860633545E12,3.0,0.06504606504606503,15373.720136518778,1385.3479853479853,
1.583379986071167E12,3.0,0.06637806637806641,15065.21739130434,1385.3479853479853,
1.5833799860789795E12,3.0,0.06504606504606503,15373.720136518778,1386.080586080586,
1.583379986086792E12,3.0,0.06726606726606729,14866.336633663359,1386.080586080586,
1.5833799860946045E12,3.0,0.06637806637806641,15065.21739130434,1386.080586080586,
1.583379986102417E12,3.0,0.06593406593406591,15166.666666666673,1386.8131868131868,
1.5833799861102295E12,3.0,0.06771006771006774,14768.852459016387,1386.8131868131868,
1.583379986118042E12,3.0,0.06637806637806641,15065.21739130434,1387.5457875457876,
1.5833799861258545E12,3.0,0.06771006771006774,14768.852459016387,1387.5457875457876,
1.583379986133667E12,3.0,0.06815406815406817,14672.638436482079,1387.5457875457876,
1.5833799861414795E12,3.0,0.06726606726606729,14866.336633663359,1387.5457875457876,
1.583379986149292E12,3.0,0.06904206904206907,14483.922829581988,1389.0109890109889,
1.5833799861571045E12,3.0,0.06771006771006774,14768.852459016387,1391.2087912087911,
1.583379986164917E12,3.0,0.06859806859806863,14577.669902912616,1394.139194139194,
1.5833799861727295E12,3.0,0.0694860694860695,14391.373801916929,1398.5347985347985,
1.583379986180542E12,3.0,0.06771006771006774,14768.852459016387,1404.3956043956043,
1.5833799861883545E12,3.0,0.06904206904206907,14483.922829581988,1411.7216117216117,
1.583379986196167E12,3.0,0.06726606726606729,14866.336633663359,1419.7802197802198,
1.5833799862039795E12,3.0,0.06815406815406817,14672.638436482079,1427.8388278388277,
1.583379986211792E12,3.0,0.0694860694860695,14391.373801916929,1436.6300366300366,
1.5833799862196045E12,3.0,0.06771006771006774,14768.852459016387,1443.956043956044,
1.583379986227417E12,3.0,0.06993006993006995,14299.999999999996,1450.5494505494505,
1.5833799862352295E12,3.0,0.06904206904206907,14483.922829581988,1456.4102564102564,
1.583379986243042E12,3.0,0.06904206904206907,14483.922829581988,1460.07326007326,
1.5833799862508545E12,3.0,0.07081807081807083,14120.68965517241,1461.5384615384614,
1.583379986258667E12,3.0,0.06904206904206907,14483.922829581988,1462.2710622710622,
1.5833799862664795E12,3.0,0.0703740703740704,14209.779179810721,1458.6080586080584,
1.583379986274292E12,3.0,0.06993006993006995,14299.999999999996,1454.9450549450548,
1.5833799862821045E12,3.0,0.0694860694860695,14391.373801916929,1449.084249084249,
1.583379986289917E12,3.0,0.07126207126207128,14032.710280373829,1441.7582417582416,
1.5833799862977295E12,3.0,0.0694860694860695,14391.373801916929,1435.164835164835,
1.583379986305542E12,3.0,0.07126207126207128,14032.710280373829,1426.3736263736262,
1.5833799863133545E12,3.0,0.07126207126207128,14032.710280373829,1418.3150183150183,
1.583379986321167E12,3.0,0.06993006993006995,14299.999999999996,1411.7216117216117,
1.5833799863289795E12,3.0,0.07170607170607173,13945.82043343653,1404.3956043956043,
1.583379986336792E12,3.0,0.0703740703740704,14209.779179810721,1397.8021978021977,
1.5833799863446045E12,3.0,0.07126207126207128,14032.710280373829,1392.6739926739926,
1.583379986352417E12,3.0,0.07170607170607173,13945.82043343653,1387.5457875457876,
1.5833799863602295E12,3.0,0.0703740703740704,14209.779179810721,1384.6153846153845,
1.583379986368042E12,3.0,0.07170607170607173,13945.82043343653,1380.952380952381,
1.5833799863758545E12,3.0,0.07081807081807083,14120.68965517241,1379.4871794871794,
1.583379986383667E12,3.0,0.07126207126207128,14032.710280373829,1378.021978021978,
1.5833799863914795E12,3.0,0.0725940725940726,13775.229357798164,1378.021978021978,
1.583379986399292E12,3.0,0.07081807081807083,14120.68965517241,1378.7545787545787,
1.5833799864071045E12,3.0,0.07215007215007216,13859.999999999998,1378.7545787545787,
1.583379986414917E12,3.0,0.07170607170607173,13945.82043343653,1380.2197802197802,
1.5833799864227295E12,3.0,0.07126207126207128,14032.710280373829,1380.952380952381,
1.583379986430542E12,3.0,0.0725940725940726,13775.229357798164,1381.6849816849815,
1.5833799864383545E12,3.0,0.07081807081807083,14120.68965517241,1382.4175824175823,
1.583379986446167E12,3.0,0.07215007215007216,13859.999999999998,1383.8827838827838,
1.5833799864539795E12,3.0,0.07170607170607173,13945.82043343653,1385.3479853479853,
1.583379986461792E12,3.0,0.07081807081807083,14120.68965517241,1386.8131868131868,
1.5833799864696045E12,3.0,0.07215007215007216,13859.999999999998,1387.5457875457876,
1.583379986477417E12,3.0,0.07081807081807083,14120.68965517241,1389.7435897435896,
1.5833799864852295E12,3.0,0.07215007215007216,13859.999999999998,1391.2087912087911,
1.583379986493042E12,3.0,0.0725940725940726,13775.229357798164,1392.6739926739926,
1.5833799865008545E12,3.0,0.07170607170607173,13945.82043343653,1394.139194139194,
1.583379986508667E12,3.0,0.07303807303807304,13691.489361702126,1396.3369963369962,
1.5833799865164795E12,3.0,0.07215007215007216,13859.999999999998,1397.069597069597,
1.583379986524292E12,3.0,0.07303807303807304,13691.489361702126,1398.5347985347985,
1.5833799865321045E12,3.0,0.07437007437007438,13446.268656716416,1400.0,
1.583379986539917E12,3.0,0.07303807303807304,13691.489361702126,1400.7326007326005,
1.5833799865477295E12,3.0,0.07481407481407482,13366.46884272997,1400.7326007326005,
1.583379986555542E12,3.0,0.07481407481407482,13366.46884272997,1400.7326007326005,
1.5833799865633545E12,3.0,0.07481407481407482,13366.46884272997,1400.0,
1.583379986571167E12,3.0,0.07614607614607616,13132.65306122449,1400.0,
1.5833799865789795E12,3.0,0.07481407481407482,13366.46884272997,1399.2673992673992,
1.583379986586792E12,3.0,0.07659007659007659,13056.521739130436,1397.8021978021977,
1.5833799865946045E12,3.0,0.07614607614607616,13132.65306122449,1397.069597069597,
1.583379986602417E12,3.0,0.0757020757020757,13209.677419354839,1395.6043956043954,
1.5833799866102295E12,3.0,0.07747807747807747,12906.876790830947,1393.4065934065934,
1.583379986618042E12,3.0,0.07659007659007659,13056.521739130436,1392.6739926739926,
1.5833799866258545E12,3.0,0.07747807747807747,12906.876790830947,1391.2087912087911,
1.583379986633667E12,3.0,0.07792207792207792,12833.333333333334,1389.7435897435896,
1.5833799866414795E12,3.0,0.07703407703407703,12981.268011527378,1388.278388278388,
1.583379986649292E12,3.0,0.0788100788100788,12688.7323943662,1386.080586080586,
1.5833799866571045E12,3.0,0.07792207792207792,12833.333333333334,1384.6153846153845,
1.583379986664917E12,3.0,0.07836607836607835,12760.623229461758,1384.6153846153845,
1.5833799866727295E12,3.0,0.07925407925407923,12617.647058823532,1383.8827838827838,
1.583379986680542E12,3.0,0.07792207792207792,12833.333333333334,1383.150183150183,
1.5833799866883545E12,3.0,0.07969807969807968,12547.353760445685,1382.4175824175823,
1.583379986696167E12,3.0,0.07925407925407923,12617.647058823532,1383.150183150183,
1.5833799867039795E12,3.0,0.07969807969807968,12547.353760445685,1382.4175824175823,
1.583379986711792E12,3.0,0.08058608058608056,12409.090909090912,1383.8827838827838,
1.5833799867196045E12,3.0,0.07969807969807968,12547.353760445685,1383.8827838827838,
1.583379986727417E12,3.0,0.08147408147408146,12273.841961852864,1384.6153846153845,
1.5833799867352295E12,3.0,0.08103008103008101,12341.095890410961,1386.080586080586,
1.583379986743042E12,3.0,0.08103008103008101,12341.095890410961,1386.8131868131868,
1.5833799867508545E12,3.0,0.08236208236208233,12141.509433962268,1387.5457875457876,
1.583379986758667E12,3.0,0.08147408147408146,12273.841961852864,1388.278388278388,
1.5833799867664795E12,3.0,0.08236208236208233,12141.509433962268,1388.278388278388,
1.583379986774292E12,3.0,0.08236208236208233,12141.509433962268,1388.278388278388,
1.5833799867821045E12,3.0,0.08147408147408146,12273.841961852864,1388.278388278388,
1.583379986789917E12,3.0,0.08280608280608279,12076.407506702417,1388.278388278388,
1.5833799867977295E12,3.0,0.0819180819180819,12207.317073170734,1389.0109890109889,
1.583379986805542E12,3.0,0.08280608280608279,12076.407506702417,1389.0109890109889,
1.5833799868133545E12,3.0,0.08325008325008322,12012.000000000004,1389.0109890109889,
1.583379986821167E12,3.0,0.0819180819180819,12207.317073170734,1388.278388278388,
1.5833799868289795E12,3.0,0.08369408369408367,11948.27586206897,1388.278388278388,
1.583379986836792E12,3.0,0.08280608280608279,12076.407506702417,1388.278388278388,
1.5833799868446045E12,3.0,0.08325008325008322,12012.000000000004,1387.5457875457876,
1.583379986852417E12,3.0,0.0841380841380841,11885.224274406337,1387.5457875457876,
1.5833799868602295E12,3.0,0.08236208236208233,12141.509433962268,1387.5457875457876,
1.583379986868042E12,3.0,0.0841380841380841,11885.224274406337,1387.5457875457876,
1.5833799868758545E12,3.0,0.08325008325008322,12012.000000000004,1388.278388278388,
1.583379986883667E12,3.0,0.08325008325008322,12012.000000000004,1389.0109890109889,
1.5833799868914795E12,3.0,0.08458208458208455,11822.834645669296,1389.0109890109889,
1.583379986899292E12,3.0,0.08280608280608279,12076.407506702417,1389.0109890109889,
1.5833799869071045E12,3.0,0.08458208458208455,11822.834645669296,1389.0109890109889,
1.583379986914917E12,3.0,0.0841380841380841,11885.224274406337,1389.0109890109889,
1.5833799869227295E12,3.0,0.08369408369408367,11948.27586206897,1389.0109890109889,
1.583379986930542E12,3.0,0.08591408591408595,11639.534883720926,1389.0109890109889,
1.5833799869383545E12,3.0,0.0841380841380841,11885.224274406337,1389.0109890109889,
1.583379986946167E12,3.0,0.0854700854700855,11699.999999999996,1389.0109890109889,
1.5833799869539795E12,3.0,0.0854700854700855,11699.999999999996,1389.7435897435896,
1.583379986961792E12,3.0,0.08458208458208455,11822.834645669296,1391.2087912087911,
1.5833799869696045E12,3.0,0.0863580863580864,11579.691516709507,1394.139194139194,
1.583379986977417E12,3.0,0.08502608502608501,11761.09660574413,1398.5347985347985,
1.5833799869852295E12,3.0,0.0854700854700855,11699.999999999996,1402.9304029304028,
1.583379986993042E12,3.0,0.08502608502608501,11761.09660574413,1409.5238095238094,
1.5833799870008545E12,3.0,0.08325008325008322,12012.000000000004,1416.117216117216,
1.583379987008667E12,3.0,0.08369408369408367,11948.27586206897,1424.1758241758241,
1.5833799870164795E12,3.0,0.08147408147408146,12273.841961852864,1432.2344322344322,
1.583379987024292E12,3.0,0.07969807969807968,12547.353760445685,1439.5604395604394,
1.5833799870321045E12,3.0,0.08058608058608056,12409.090909090912,1446.8864468864467,
1.583379987039917E12,3.0,0.07925407925407923,12617.647058823532,1452.7472527472526,
1.5833799870477295E12,3.0,0.08103008103008101,12341.095890410961,1456.4102564102564,
1.583379987055542E12,3.0,0.08103008103008101,12341.095890410961,1458.6080586080584,
1.5833799870633545E12,3.0,0.08147408147408146,12273.841961852864,1457.8754578754579,
1.583379987071167E12,3.0,0.08325008325008322,12012.000000000004,1455.6776556776556,
1.5833799870789795E12,3.0,0.08236208236208233,12141.509433962268,1452.014652014652,
1.583379987086792E12,3.0,0.08369408369408367,11948.27586206897,1446.8864468864467,
1.5833799870946045E12,3.0,0.0841380841380841,11885.224274406337,1441.0256410256409,
1.583379987102417E12,3.0,0.08325008325008322,12012.000000000004,1434.4322344322343,
1.5833799871102295E12,3.0,0.08458208458208455,11822.834645669296,1426.3736263736262,
1.583379987118042E12,3.0,0.08280608280608279,12076.407506702417,1418.3150183150183,
1.5833799871258545E12,3.0,0.08369408369408367,11948.27586206897,1410.2564102564102,
1.583379987133667E12,3.0,0.0841380841380841,11885.224274406337,1402.9304029304028,
1.5833799871414795E12,3.0,0.08236208236208233,12141.509433962268,1395.6043956043954,
1.583379987149292E12,3.0,0.0841380841380841,11885.224274406337,1389.7435897435896,
1.5833799871571045E12,3.0,0.08280608280608279,12076.407506702417,1385.3479853479853,
1.583379987164917E12,3.0,0.08280608280608279,12076.407506702417,1380.952380952381,
1.5833799871727295E12,3.0,0.08325008325008322,12012.000000000004,1378.021978021978,
1.583379987180542E12,3.0,0.08103008103008101,12341.095890410961,1375.8241758241757,
1.5833799871883545E12,3.0,0.0819180819180819,12207.317073170734,1374.3589743589744,
1.583379987196167E12,3.0,0.08103008103008101,12341.095890410961,1374.3589743589744,
1.5833799872039795E12,3.0,0.08058608058608056,12409.090909090912,1374.3589743589744,
1.583379987211792E12,3.0,0.0819180819180819,12207.317073170734,1375.091575091575,
1.5833799872196045E12,3.0,0.08058608058608056,12409.090909090912,1376.5567765567764,
1.583379987227417E12,3.0,0.08236208236208233,12141.509433962268,1377.2893772893772,
1.5833799872352295E12,3.0,0.08236208236208233,12141.509433962268,1378.7545787545787,
1.583379987243042E12,3.0,0.0819180819180819,12207.317073170734,1380.2197802197802,
1.5833799872508545E12,3.0,0.08325008325008322,12012.000000000004,1380.952380952381,
1.583379987258667E12,3.0,0.08147408147408146,12273.841961852864,1383.150183150183,
1.5833799872664795E12,3.0,0.08236208236208233,12141.509433962268,1385.3479853479853,
1.583379987274292E12,3.0,0.08280608280608279,12076.407506702417,1386.8131868131868,
1.5833799872821045E12,3.0,0.08147408147408146,12273.841961852864,1389.7435897435896,
1.583379987289917E12,3.0,0.08325008325008322,12012.000000000004,1391.9413919413919,
1.5833799872977295E12,3.0,0.0819180819180819,12207.317073170734,1394.139194139194,
1.583379987305542E12,3.0,0.0819180819180819,12207.317073170734,1397.069597069597,
1.5833799873133545E12,3.0,0.08280608280608279,12076.407506702417,1400.0,
1.583379987321167E12,3.0,0.08147408147408146,12273.841961852864,1402.197802197802,
1.5833799873289795E12,3.0,0.08325008325008322,12012.000000000004,1404.3956043956043,
1.583379987336792E12,3.0,0.08236208236208233,12141.509433962268,1406.5934065934066,
1.5833799873446045E12,3.0,0.08236208236208233,12141.509433962268,1407.3260073260071,
1.583379987352417E12,3.0,0.08369408369408367,11948.27586206897,1408.058608058608,
1.5833799873602295E12,3.0,0.0819180819180819,12207.317073170734,1408.7912087912086,
1.583379987368042E12,3.0,0.08325008325008322,12012.000000000004,1408.7912087912086,
1.5833799873758545E12,3.0,0.08325008325008322,12012.000000000004,1408.058608058608,
1.583379987383667E12,3.0,0.08280608280608279,12076.407506702417,1406.5934065934066,
1.5833799873914795E12,3.0,0.08369408369408367,11948.27586206897,1404.3956043956043,
1.583379987399292E12,3.0,0.08236208236208233,12141.509433962268,1402.9304029304028,
1.5833799874071045E12,3.0,0.08325008325008322,12012.000000000004,1401.4652014652013,
1.583379987414917E12,3.0,0.08325008325008322,12012.000000000004,1399.2673992673992,
1.5833799874227295E12,3.0,0.08236208236208233,12141.509433962268,1397.8021978021977,
1.583379987430542E12,3.0,0.0841380841380841,11885.224274406337,1396.3369963369962,
1.5833799874383545E12,3.0,0.08280608280608279,12076.407506702417,1394.139194139194,
1.583379987446167E12,3.0,0.08325008325008322,12012.000000000004,1392.6739926739926,
1.5833799874539795E12,3.0,0.08369408369408367,11948.27586206897,1391.2087912087911,
1.583379987461792E12,3.0,0.08236208236208233,12141.509433962268,1389.7435897435896,
1.5833799874696045E12,3.0,0.0841380841380841,11885.224274406337,1389.0109890109889,
1.583379987477417E12,3.0,0.08280608280608279,12076.407506702417,1387.5457875457876,
1.5833799874852295E12,3.0,0.08325008325008322,12012.000000000004,1386.8131868131868,
1.583379987493042E12,3.0,0.0841380841380841,11885.224274406337,1386.080586080586,
1.5833799875008545E12,3.0,0.08236208236208233,12141.509433962268,1385.3479853479853,
1.583379987508667E12,3.0,0.08369408369408367,11948.27586206897,1385.3479853479853,
1.5833799875164795E12,3.0,0.08325008325008322,12012.000000000004,1386.080586080586,
1.583379987524292E12,3.0,0.08280608280608279,12076.407506702417,1386.080586080586,
1.5833799875321045E12,3.0,0.0841380841380841,11885.224274406337,1386.080586080586,
1.583379987539917E12,3.0,0.08236208236208233,12141.509433962268,1386.080586080586,
1.5833799875477295E12,3.0,0.08369408369408367,11948.27586206897,1386.080586080586,
1.583379987555542E12,3.0,0.08369408369408367,11948.27586206897,1386.080586080586,
1.5833799875633545E12,3.0,0.08280608280608279,12076.407506702417,1385.3479853479853,
1.583379987571167E12,3.0,0.0841380841380841,11885.224274406337,1386.080586080586,
1.5833799875789795E12,3.0,0.08280608280608279,12076.407506702417,1387.5457875457876,
1.583379987586792E12,3.0,0.08369408369408367,11948.27586206897,1387.5457875457876,
1.5833799875946045E12,3.0,0.08369408369408367,11948.27586206897,1388.278388278388,
1.583379987602417E12,3.0,0.08280608280608279,12076.407506702417,1389.0109890109889,
1.5833799876102295E12,3.0,0.08458208458208455,11822.834645669296,1389.7435897435896,
1.583379987618042E12,3.0,0.08325008325008322,12012.000000000004,1390.4761904761904,
1.5833799876258545E12,3.0,0.08369408369408367,11948.27586206897,1391.2087912087911,
1.583379987633667E12,3.0,0.08458208458208455,11822.834645669296,1391.2087912087911,
1.5833799876414795E12,3.0,0.08280608280608279,12076.407506702417,1391.2087912087911,
1.583379987649292E12,3.0,0.08458208458208455,11822.834645669296,1389.7435897435896,
1.5833799876571045E12,3.0,0.08369408369408367,11948.27586206897,1389.0109890109889,
1.583379987664917E12,3.0,0.08369408369408367,11948.27586206897,1389.0109890109889,
1.5833799876727295E12,3.0,0.08458208458208455,11822.834645669296,1388.278388278388,
1.583379987680542E12,3.0,0.08325008325008322,12012.000000000004,1387.5457875457876,
1.5833799876883545E12,3.0,0.08458208458208455,11822.834645669296,1387.5457875457876,
1.583379987696167E12,3.0,0.0841380841380841,11885.224274406337,1387.5457875457876,
1.5833799877039795E12,3.0,0.08369408369408367,11948.27586206897,1388.278388278388,
1.583379987711792E12,3.0,0.08502608502608501,11761.09660574413,1388.278388278388,
1.5833799877196045E12,3.0,0.08325008325008322,12012.000000000004,1388.278388278388,
1.583379987727417E12,3.0,0.0841380841380841,11885.224274406337,1388.278388278388,
1.5833799877352295E12,3.0,0.0841380841380841,11885.224274406337,1388.278388278388,
1.583379987743042E12,3.0,0.08325008325008322,12012.000000000004,1388.278388278388,
1.5833799877508545E12,3.0,0.08502608502608501,11761.09660574413,1388.278388278388,
1.583379987758667E12,3.0,0.08369408369408367,11948.27586206897,1388.278388278388,
1.5833799877664795E12,3.0,0.0841380841380841,11885.224274406337,1389.0109890109889,
1.583379987774292E12,3.0,0.08458208458208455,11822.834645669296,1389.7435897435896,
1.5833799877821045E12,3.0,0.08325008325008322,12012.000000000004,1392.6739926739926,
1.583379987789917E12,3.0,0.08502608502608501,11761.09660574413,1395.6043956043954,
1.5833799877977295E12,3.0,0.0841380841380841,11885.224274406337,1400.0,
1.583379987805542E12,3.0,0.08458208458208455,11822.834645669296,1405.8608058608058,
1.5833799878133545E12,3.0,0.08591408591408595,11639.534883720926,1413.9194139194137,
1.583379987821167E12,3.0,0.08458208458208455,11822.834645669296,1421.9780219780218,
1.5833799878289795E12,3.0,0.08591408591408595,11639.534883720926,1430.03663003663,
1.583379987836792E12,3.0,0.0854700854700855,11699.999999999996,1438.095238095238,
1.5833799878446045E12,3.0,0.08502608502608501,11761.09660574413,1445.4212454212454,
1.583379987852417E12,3.0,0.08680208680208684,11520.460358056262,1452.014652014652,
1.5833799878602295E12,3.0,0.08458208458208455,11822.834645669296,1457.8754578754579,
1.583379987868042E12,3.0,0.08591408591408595,11639.534883720926,1460.8058608058607,
1.5833799878758545E12,3.0,0.08591408591408595,11639.534883720926,1461.5384615384614,
1.583379987883667E12,3.0,0.08502608502608501,11761.09660574413,1462.2710622710622,
1.5833799878914795E12,3.0,0.0863580863580864,11579.691516709507,1459.3406593406592,
1.583379987899292E12,3.0,0.08502608502608501,11761.09660574413,1455.6776556776556,
1.5833799879071045E12,3.0,0.08591408591408595,11639.534883720926,1451.2820512820513,
1.583379987914917E12,3.0,0.08591408591408595,11639.534883720926,1446.153846153846,
1.5833799879227295E12,3.0,0.08502608502608501,11761.09660574413,1439.5604395604394,
1.583379987930542E12,3.0,0.0863580863580864,11579.691516709507,1431.5018315018315,
1.5833799879383545E12,3.0,0.08502608502608501,11761.09660574413,1424.1758241758241,
1.583379987946167E12,3.0,0.0854700854700855,11699.999999999996,1416.8498168498168,
1.5833799879539795E12,3.0,0.08591408591408595,11639.534883720926,1409.5238095238094,
1.583379987961792E12,3.0,0.08458208458208455,11822.834645669296,1402.197802197802,
1.5833799879696045E12,3.0,0.0863580863580864,11579.691516709507,1396.3369963369962,
1.583379987977417E12,3.0,0.0854700854700855,11699.999999999996,1390.4761904761904,
1.5833799879852295E12,3.0,0.0854700854700855,11699.999999999996,1386.080586080586,
1.583379987993042E12,3.0,0.0863580863580864,11579.691516709507,1383.150183150183,
1.5833799880008545E12,3.0,0.08502608502608501,11761.09660574413,1380.952380952381,
1.583379988008667E12,3.0,0.0863580863580864,11579.691516709507,1379.4871794871794,
1.5833799880164795E12,3.0,0.08591408591408595,11639.534883720926,1379.4871794871794,
1.583379988024292E12,3.0,0.0854700854700855,11699.999999999996,1379.4871794871794,
1.5833799880321045E12,3.0,0.0863580863580864,11579.691516709507,1380.2197802197802,
1.583379988039917E12,3.0,0.08458208458208455,11822.834645669296,1382.4175824175823,
1.5833799880477295E12,3.0,0.0854700854700855,11699.999999999996,1383.8827838827838,
1.583379988055542E12,3.0,0.0854700854700855,11699.999999999996,1384.6153846153845,
1.5833799880633545E12,3.0,0.0841380841380841,11885.224274406337,1386.080586080586,
1.583379988071167E12,3.0,0.08591408591408595,11639.534883720926,1387.5457875457876,
1.5833799880789795E12,3.0,0.08458208458208455,11822.834645669296,1389.0109890109889,
1.583379988086792E12,3.0,0.08502608502608501,11761.09660574413,1390.4761904761904,
1.5833799880946045E12,3.0,0.0854700854700855,11699.999999999996,1392.6739926739926,
1.583379988102417E12,3.0,0.08458208458208455,11822.834645669296,1394.8717948717947,
1.5833799881102295E12,3.0,0.08680208680208684,11520.460358056262,1396.3369963369962,
1.583379988118042E12,3.0,0.08591408591408595,11639.534883720926,1397.8021978021977,
1.5833799881258545E12,3.0,0.08591408591408595,11639.534883720926,1399.2673992673992,
1.583379988133667E12,3.0,0.08680208680208684,11520.460358056262,1400.7326007326005,
1.5833799881414795E12,3.0,0.08502608502608501,11761.09660574413,1402.9304029304028,
1.583379988149292E12,3.0,0.0863580863580864,11579.691516709507,1404.3956043956043,
1.5833799881571045E12,3.0,0.08502608502608501,11761.09660574413,1404.3956043956043,
1.583379988164917E12,3.0,0.08502608502608501,11761.09660574413,1405.128205128205,
1.5833799881727295E12,3.0,0.08591408591408595,11639.534883720926,1405.8608058608058,
1.583379988180542E12,3.0,0.08458208458208455,11822.834645669296,1405.128205128205,
1.5833799881883545E12,3.0,0.0854700854700855,11699.999999999996,1405.128205128205,
1.583379988196167E12,3.0,0.08591408591408595,11639.534883720926,1404.3956043956043,
1.5833799882039795E12,3.0,0.08502608502608501,11761.09660574413,1403.6630036630036,
1.583379988211792E12,3.0,0.08680208680208684,11520.460358056262,1402.197802197802,
1.5833799882196045E12,3.0,0.08502608502608501,11761.09660574413,1400.7326007326005,
1.583379988227417E12,3.0,0.0854700854700855,11699.999999999996,1399.2673992673992,
1.5833799882352295E12,3.0,0.0854700854700855,11699.999999999996,1397.069597069597,
1.583379988243042E12,3.0,0.0841380841380841,11885.224274406337,1397.069597069597,
1.5833799882508545E12,3.0,0.0854700854700855,11699.999999999996,1394.139194139194,
1.583379988258667E12,3.0,0.0841380841380841,11885.224274406337,1393.4065934065934,
1.5833799882664795E12,3.0,0.08458208458208455,11822.834645669296,1391.9413919413919,
1.583379988274292E12,3.0,0.08502608502608501,11761.09660574413,1391.2087912087911,
1.5833799882821045E12,3.0,0.08369408369408367,11948.27586206897,1389.7435897435896,
1.583379988289917E12,3.0,0.08502608502608501,11761.09660574413,1389.0109890109889,
1.5833799882977295E12,3.0,0.0841380841380841,11885.224274406337,1389.0109890109889,
1.583379988305542E12,3.0,0.08369408369408367,11948.27586206897,1388.278388278388,
1.5833799883133545E12,3.0,0.0854700854700855,11699.999999999996,1387.5457875457876,
1.583379988321167E12,3.0,0.0841380841380841,11885.224274406337,1386.080586080586,
1.5833799883289795E12,3.0,0.08591408591408595,11639.534883720926,1386.080586080586,
1.583379988336792E12,3.0,0.0854700854700855,11699.999999999996,1385.3479853479853,
1.5833799883446045E12,3.0,0.08458208458208455,11822.834645669296,1385.3479853479853,
1.583379988352417E12,3.0,0.08591408591408595,11639.534883720926,1385.3479853479853,
1.5833799883602295E12,3.0,0.08458208458208455,11822.834645669296,1385.3479853479853,
1.583379988368042E12,3.0,0.08591408591408595,11639.534883720926,1385.3479853479853,
1.5833799883758545E12,3.0,0.0854700854700855,11699.999999999996,1386.080586080586,
1.583379988383667E12,3.0,0.08458208458208455,11822.834645669296,1386.080586080586,
1.5833799883914795E12,3.0,0.0863580863580864,11579.691516709507,1387.5457875457876,
1.583379988399292E12,3.0,0.08502608502608501,11761.09660574413,1387.5457875457876,
1.5833799884071045E12,3.0,0.0854700854700855,11699.999999999996,1387.5457875457876,
1.583379988414917E12,3.0,0.0863580863580864,11579.691516709507,1388.278388278388,
1.5833799884227295E12,3.0,0.08458208458208455,11822.834645669296,1388.278388278388,
1.583379988430542E12,3.0,0.0863580863580864,11579.691516709507,1387.5457875457876,
1.5833799884383545E12,3.0,0.0854700854700855,11699.999999999996,1388.278388278388,
1.583379988446167E12,3.0,0.0854700854700855,11699.999999999996,1388.278388278388,
1.5833799884539795E12,3.0,0.0863580863580864,11579.691516709507,1388.278388278388,
1.583379988461792E12,3.0,0.08502608502608501,11761.09660574413,1387.5457875457876,
1.5833799884696045E12,3.0,0.0863580863580864,11579.691516709507,1387.5457875457876,
1.583379988477417E12,3.0,0.08591408591408595,11639.534883720926,1389.0109890109889,
1.5833799884852295E12,3.0,0.08502608502608501,11761.09660574413,1389.0109890109889,
